Omega_Re,Omega_Im,Mismatch_Re,Mismatch_Im,Mismatch_Abs,Mismatch_Phase
-1.0,0.2,-4.240563358875361e-06,-7.543473958446245e-05,7.555383718763927e-05,-1.6269522163581909
-0.9661016949152542,0.2,-4.7047196331861845e-05,-5.750852796587637e-05,7.430120773911243e-05,-2.2564713007415738
-0.9322033898305084,0.2,-7.06693221644412e-05,-1.8286741341989472e-05,7.299697256797989e-05,-2.8883818198795033
-0.8983050847457628,0.2,-6.656330568173259e-05,2.6681010016876947e-05,7.171157478957259e-05,2.760365266276853
-0.864406779661017,0.2,-3.702155006092783e-05,5.999101440661486e-05,7.049480107389805e-05,2.123707782356071
-0.8305084745762712,0.2,5.924302803592933e-06,6.91163970599412e-05,6.936983282563183e-05,1.4852904557533855
-0.7966101694915254,0.2,4.5332886691017314e-05,5.114087544144799e-05,6.83407620432953e-05,0.8455283694309471
-0.7627118644067796,0.2,6.599437443214565e-05,1.3702249146753266e-05,6.740184781124283e-05,0.2047188529104529
-0.728813559322034,0.2,6.029163059168942e-05,-2.816075840527764e-05,6.654403830070095e-05,-0.436963030899738
-0.6949152542372881,0.2,3.102616158733433e-05,-5.797918784014422e-05,6.57587174863235e-05,-1.0794444893075568
-0.6610169491525424,0.2,-9.843769694871956e-06,-6.429051598719176e-05,6.503975897637567e-05,-1.722730223962481
-0.6271186440677966,0.2,-4.6010591811973866e-05,-4.503797397523359e-05,6.438473156488186e-05,-2.366876490885991
-0.5932203389830508,0.2,-6.326024624361387e-05,-8.246826305305058e-06,6.379552412914667e-05,-3.0119602197494033
-0.5593220338983051,0.2,-5.502512222803844e-05,3.124626643874537e-05,6.327790485289184e-05,2.6251449437919
-0.5254237288135593,0.2,-2.4890496407191483e-05,5.769927262486052e-05,6.283902348727572e-05,1.9780611481483086
-0.4915254237288136,0.2,1.4900428867224689e-05,6.068006823953312e-05,6.248274531405945e-05,1.3300034548917246
-0.4576271186440678,0.2,4.8333983053181094e-05,3.915971144417546e-05,6.220656651975162e-05,0.6809235670390434
-0.423728813559322,0.2,6.19787959746324e-05,1.8919164773768712e-06,6.200766483607072e-05,0.030515745805088687
-0.38983050847457623,0.2,5.031291125095558e-05,-3.6059491881303e-05,6.190053306139043e-05,-0.6218493087891019
-0.35593220338983056,0.2,1.7940196845442664e-05,-5.928154636288167e-05,6.193668058612538e-05,-1.276931181677078
-0.3220338983050848,0.2,-2.2173990063646012e-05,-5.812974415303999e-05,6.221537583781488e-05,-1.9352157602257394
-0.288135593220339,0.2,-5.376681706244513e-05,-3.260924705686739e-05,6.288269722779275e-05,-2.5964118970911616
-0.2542372881355932,0.2,-6.367507818054007e-05,7.50548395068556e-06,6.4115894056247e-05,3.0242624296515768
-0.22033898305084743,0.2,-4.7075916997402144e-05,4.637750043662561e-05,6.608339055992439e-05,2.363667770225713
-0.18644067796610164,0.2,-9.522984331881122e-06,6.821796686775181e-05,6.887944710982323e-05,1.709496429898439
-0.15254237288135597,0.2,3.503658130400865e-05,6.343792576460228e-05,7.24702177089844e-05,1.0661912318587363
-0.11864406779661019,0.2,6.953286977474546e-05,3.245009890924118e-05,7.673218945352234e-05,0.43664400453334806
-0.0847457627118644,0.2,8.034835001995799e-05,-1.4369182164997175e-05,8.162310179734998e-05,-0.1769652958448011
-0.05084745762711862,0.2,6.275485551577144e-05,-6.051043077598132e-05,8.717616717601307e-05,-0.7671920907714364
-0.016949152542372836,0.2,2.3062959953654114e-05,-8.914311701218389e-05,9.207820280865478e-05,-1.3176291409673146
0.016949152542372836,0.2,-2.4539181352383472e-05,-8.883186472707389e-05,9.215894754354738e-05,-1.840317782961798
0.05084745762711873,0.2,-6.402123082230553e-05,-5.962705217078377e-05,8.748773254908538e-05,-2.391717265755105
0.0847457627118644,0.2,-8.122149442518835e-05,-1.3050257979830002e-05,8.226323838751437e-05,-2.9822793771265617
0.11864406779661008,0.2,-6.988966070089464e-05,3.400454502964806e-05,7.772305806875807e-05,2.6887659411419222
0.15254237288135597,0.2,-3.4835370394484555e-05,6.499205383692174e-05,7.373920322638606e-05,2.0628230503776437
0.18644067796610164,0.2,1.0234874795338711e-05,6.953658456211562e-05,7.028576850714885e-05,1.4246586993968327
0.22033898305084754,0.2,4.8166844514849835e-05,4.726509689361764e-05,6.748358537363574e-05,0.7759493271734044
0.2542372881355932,0.2,6.494676189942117e-05,7.839865065236374e-06,6.541823419705868e-05,0.12013093470922467
0.2881355932203389,0.2,5.4985222564132234e-05,-3.285459128227154e-05,6.40530941387867e-05,-0.5385915778956323
0.3220338983050848,0.2,2.3110066807351732e-05,-5.887825434285119e-05,6.325127684325223e-05,-1.1967669606206202
0.35593220338983045,0.2,-1.746672830138907e-05,-6.036363151854078e-05,6.283991253702312e-05,-1.8524618882147128
0.38983050847457634,0.2,-5.039524345198403e-05,-3.7240507824796675e-05,6.266207773153936e-05,-2.505189035996783
0.423728813559322,0.2,-6.259875860215859e-05,8.685052669373517e-07,6.260478320328265e-05,3.1277193825235226
0.4576271186440677,0.2,-4.9358870619015246e-05,3.8520617733660316e-05,6.26109902442652e-05,2.4789056877239712
0.4915254237288136,0.2,-1.6104608573799522e-05,6.057174919295101e-05,6.267611361283546e-05,1.830660926183168
0.5254237288135593,0.2,2.3780702074814266e-05,5.81501351859478e-05,6.282483595931691e-05,1.1825953127534996
0.5593220338983051,0.2,5.427086089008521e-05,3.215210917345617e-05,6.307998467067685e-05,0.5348405002784172
0.5932203389830508,0.2,6.304651500948708e-05,-7.107158050704575e-06,6.344584108039843e-05,-0.11225489820913415
0.6271186440677967,0.2,4.639486955631381e-05,-4.395636966564472e-05,6.391123809886791e-05,-0.7584155996545952
0.6610169491525424,0.2,1.0731438955004177e-05,-6.356057996906547e-05,6.446015131884929e-05,-1.4035357818444127
0.6949152542372881,0.2,-2.986981589690068e-05,-5.781959576273853e-05,6.507927132260495e-05,-2.047638477084249
0.728813559322034,0.2,-5.919143706387257e-05,-2.8650430386871634e-05,6.576072827333473e-05,-2.690802486076619
0.7627118644067796,0.2,-6.528612260285097e-05,1.2658262498068861e-05,6.6501950452483e-05,2.950079879183303
0.7966101694915255,0.2,-4.527316503024904e-05,4.9801908030456266e-05,6.730445390410792e-05,2.3085971298225596
0.8305084745762712,0.2,-6.612963058170585e-06,6.785077558775591e-05,6.817227463029778e-05,1.6679528068502274
0.8644067796610169,0.2,3.568333405324384e-05,5.918514729381595e-05,6.910992685096751e-05,1.0282396579779274
0.8983050847457628,0.2,6.486387838890934e-05,2.6634644849406663e-05,7.011937696461118e-05,0.3896310463978767
0.9322033898305084,0.2,6.902376271947096e-05,-1.745107212563222e-05,7.119564409630583e-05,-0.24763761135493234
0.9661016949152543,0.2,4.589369143066399e-05,-5.5894992224764323e-05,7.232206488299035e-05,-0.8833393186215889
1.0,0.2,3.921878128947892e-06,-7.336478672350496e-05,7.346953830699965e-05,-1.5173899328236768
-1.0,0.2169491525423729,-6.609572836447592e-06,-0.0001032620153635631,0.00010347333120193363,-1.6347169124211893
-0.9661016949152542,0.2169491525423729,-6.515491852549174e-05,-7.829159762467708e-05,0.00010185645618559388,-2.2648702901937496
-0.9322033898305084,0.2169491525423729,-9.720415641322692e-05,-2.4259120469452823e-05,0.00010018559252686242,-2.8970199076047134
-0.8983050847457628,0.2169491525423729,-9.114387526435937e-05,3.743572320002071e-05,9.853242801085167e-05,2.7518687650774023
-0.864406779661017,0.2169491525423729,-5.024614943944432e-05,8.291664535426663e-05,9.695280094095371e-05,2.1156041166346196
-0.8305084745762712,0.2169491525423729,8.876083236168874e-06,9.506397791156142e-05,9.547745676328645e-05,1.4776966692866398
-0.7966101694915254,0.2169491525423729,6.292643317078708e-05,6.998706768257537e-05,9.41165534558237e-05,0.8384703050841218
-0.7627118644067796,0.2169491525423729,9.105035615719234e-05,1.828398101617487e-05,9.286803173402253e-05,0.19817596310232696
-0.728813559322034,0.2169491525423729,8.286942593302708e-05,-3.932008068258009e-05,9.172464499442922e-05,-0.443025902872988
-0.6949152542372881,0.2169491525423729,4.2334399447977684e-05,-8.018979759234738e-05,9.067858079239316e-05,-1.085057136760726
-0.6610169491525424,0.2169491525423729,-1.4038479030277681e-05,-8.861919056507912e-05,8.972424326732077e-05,-1.7279043396474119
-0.6271186440677966,0.2169491525423729,-6.379375843254705e-05,-6.185818512899647e-05,8.885988230018858e-05,-2.3715975167799117
-0.5932203389830508,0.2169491525423729,-8.739650769765069e-05,-1.1018031910664034e-05,8.8088288579867e-05,-3.0161847757119276
-0.5593220338983051,0.2169491525423729,-7.585658470456874e-05,4.344386884879994e-05,8.741619520199413e-05,2.621480633591375
-0.5254237288135593,0.2169491525423729,-3.4159015985292255e-05,7.985237798287556e-05,8.685183154432313e-05,1.9750168208913603
-0.4915254237288136,0.2169491525423729,2.080548539743318e-05,8.385890153375799e-05,8.640129390854816e-05,1.3276056642114553
-0.4576271186440678,0.2169491525423729,6.696851908393782e-05,5.406333962790074e-05,8.606757368496852e-05,0.6791732117606348
-0.423728813559322,0.2169491525423729,8.582077227487936e-05,2.5302784412450002e-06,8.585806463487824e-05,0.029474748317771693
-0.38983050847457623,0.2169491525423729,6.973622208282995e-05,-4.998754377167787e-05,8.58014871823979e-05,-0.621918242800032
-0.35593220338983056,0.2169491525423729,2.5021588828477896e-05,-8.22441219506898e-05,8.596612997536498e-05,-1.27545821565239
-0.3220338983050848,0.2169491525423729,-3.050255345264346e-05,-8.091086632534117e-05,8.64694978396926e-05,-1.9313101437485918
-0.288135593220339,0.2169491525423729,-7.445379947488531e-05,-4.591743731094803e-05,8.74744494435448e-05,-2.5889668419129324
-0.2542372881355932,0.2169491525423729,-8.867381265108185e-05,9.3713469223087e-06,8.916763534611325e-05,3.0363001308126654
-0.22033898305084743,0.2169491525423729,-6.643133008517283e-05,6.323304615481743e-05,9.171444675132953e-05,2.3808553542058695
-0.18644067796610164,0.2169491525423729,-1.523071251494406e-05,9.396989697786286e-05,9.519619814752599e-05,1.7314797520166534
-0.15254237288135597,0.2169491525423729,4.589292716328842e-05,8.835811559294086e-05,9.956564344567052e-05,1.0917519214837736
-0.11864406779661019,0.2169491525423729,9.358672496488807e-05,4.6889761273841055e-05,0.00010467628576698454,0.4644713075999989
-0.0847457627118644,0.2169491525423729,0.00010916260674607447,-1.6229414598049248e-05,0.00011036244202532617,-0.14759084182973078
-0.05084745762711862,0.2169491525423729,8.592110088616087e-05,-7.829628716783149e-05,0.00011624432958969383,-0.7390002664010976
-0.016949152542372836,0.2169491525423729,3.186553913356442e-05,-0.00011642052511888441,0.00012070273921179057,-1.3036291967916351
0.016949152542372836,0.2169491525423729,-3.3677243124164447e-05,-0.00011604927075986224,0.00012083703880987774,-1.8532361950751577
0.05084745762711873,0.2169491525423729,-8.747057143566344e-05,-7.724011419634543e-05,0.00011669248522653883,-2.4182264808657474
0.0847457627118644,0.2169491525423729,-0.00011022457245712105,-1.465001155666062e-05,0.00011119388118042026,-3.009456515934695
0.11864406779661008,0.2169491525423729,-9.400960028594252e-05,4.875191123963801e-05,0.00010589879033983449,2.66318830958214
0.15254237288135597,0.2169491525423729,-4.562464859479522e-05,9.021863584667525e-05,0.00010109901489843283,2.0390031034807303
0.18644067796610164,0.2169491525423729,1.6132003344304787e-05,9.5543997090894e-05,9.689632042552195e-05,1.4035301916106397
0.22033898305084754,0.2169491525423729,6.780261003776988e-05,6.428177142507865e-05,9.343093741090234e-05,0.7587484942339346
0.2542372881355932,0.2169491525423729,9.026924590440075e-05,9.742770549594965e-06,9.07934927961868e-05,0.10751393563532757
0.2881355932203389,0.2169491525423729,7.598276366718266e-05,-4.625920496017757e-05,8.895669968052238e-05,-0.5468736020757513
0.3220338983050848,0.2169491525423729,3.167948453180723e-05,-8.187447427922553e-05,8.77896308153792e-05,-1.2016099042857118
0.35593220338983045,0.2169491525423729,-2.442320580983368e-05,-8.362145090489494e-05,8.711509647282293e-05,-1.854960880692084
0.38983050847457634,0.2169491525423729,-6.983576517074793e-05,-5.1486971226743995e-05,8.676371536009402e-05,-2.506296473614746
0.423728813559322,0.2169491525423729,-8.659897375194018e-05,1.230845157497799e-06,8.660772041042854e-05,3.127380449546373
0.4576271186440677,0.2169491525423729,-6.826171819390902e-05,5.325156901123529e-05,8.657593067904615e-05,2.479098700747392
0.4915254237288136,0.2169491525423729,-2.2330848636441682e-05,8.372352455074569e-05,8.665042044919913e-05,1.8314497388772528
0.5254237288135593,0.2169491525423729,3.274847095558494e-05,8.04336621098689e-05,8.684489824010015e-05,1.184142402211503
0.5593220338983051,0.2169491525423729,7.489589292870608e-05,4.461304137199239e-05,8.717636284020636e-05,0.537227670476758
0.5932203389830508,0.2169491525423729,8.712717089281865e-05,-9.54101826085099e-06,8.764801730353243e-05,-0.10907220367963545
0.6271186440677967,0.2169491525423729,6.429629797862227e-05,-6.044740317900795e-05,8.824909339387757e-05,-0.7545535268793752
0.6610169491525424,0.2169491525423729,1.5198326093756587e-05,-8.765523778913434e-05,8.896308126364468e-05,-1.399115632830534
0.6949152542372881,0.2169491525423729,-4.0814283962212196e-05,-7.99609917977454e-05,8.977508554508427e-05,-2.0427510433656155
0.728813559322034,0.2169491525423729,-8.140647669800441e-05,-3.9937321896562994e-05,9.067526745840028e-05,-2.6855001700107595
0.7627118644067796,0.2169491525423729,-9.008145038403326e-05,1.6933876949841448e-05,9.165928153680573e-05,2.9557771225118445
0.7966101694915255,0.2169491525423729,-6.279103323217687e-05,6.823208285688403e-05,9.272718579442076e-05,2.3146909351166762
0.8305084745762712,0.2169491525423729,-9.714047198849188e-06,9.337770242473911e-05,9.388161706694553e-05,1.6744530929297317
0.8644067796610169,0.2169491525423729,4.855185417495695e-05,8.180179456185082e-05,9.512526550483594e-05,1.0351474447413713
0.8983050847457628,0.2169491525423729,8.895857358090635e-05,3.7288052595766636e-05,9.645738271347708e-05,0.3969154259303667
0.9322033898305084,0.2169491525423729,9.50626999540072e-05,-2.3270046782021297e-05,9.78693619054659e-05,-0.24006566571517268
0.9661016949152543,0.2169491525423729,6.362840688585112e-05,-7.628925782869127e-05,9.93409534023303e-05,-0.8756402628433197
1.0,0.2169491525423729,6.150702734595284e-06,-0.00010065342405831071,0.00010084117670273131,-1.5097644840486153
-1.0,0.23389830508474577,-1.0101327032524688e-05,-0.00014139816247141186,0.0001417585170566827,-1.6421140525412785
-0.9661016949152542,0.23389830508474577,-9.018022568072917e-05,-0.0001066403300238276,0.00013965898858082177,-2.2727586384506684
-0.9322033898305084,0.23389830508474577,-0.0001336768855437873,-3.221472611702416e-05,0.0001375038119743656,-2.905112272076583
-0.8983050847457628,0.23389830508474577,-0.00012480136892703108,5.2430788192759125e-05,0.0001353675339088915,2.743867856314282
-0.864406779661017,0.23389830508474577,-6.821062575532078e-05,0.00011454074967796947,0.000133312688078531,2.107910805633045
-0.8305084745762712,0.23389830508474577,1.3163759015048725e-05,0.00013071709349153702,0.00013137824432637814,1.470430505234371
-0.7966101694915254,0.23389830508474577,8.729091302059863e-05,9.576871491488219e-05,0.00012958144254644527,0.8316767928805863
-0.7627118644067796,0.23389830508474577,0.0001255778635861364,2.4393126835963358e-05,0.00012792507361613546,0.19185778628278702
-0.728813559322034,0.23389830508474577,0.00011388213877729547,-5.4854558633011906e-05,0.00012640476310374433,-0.4488831356275754
-0.6949152542372881,0.23389830508474577,5.776555647438585e-05,-0.00011086809161620403,0.0001250143721874188,-1.0904669297508918
-0.6610169491525424,0.23389830508474577,-1.9968537068939373e-05,-0.0001221278156240339,0.0001237495285719167,-1.7328674476048982
-0.6271186440677966,0.23389830508474577,-8.840621804540188e-05,-8.495581253349676e-05,0.00012260974460587455,-2.3760947533081263
-0.5932203389830508,0.23389830508474577,-0.00012070407166993636,-1.4728011923643298e-05,0.00012159928968922522,-3.0201753210007065
-0.5593220338983051,0.23389830508474577,-0.00010455587311003435,6.035715394228766e-05,0.00012072661940854061,2.618052754326365
-0.5254237288135593,0.23389830508474577,-4.68870199340453e-05,0.00011046332469804032,0.0001200022447358392,1.9722076375005135
-0.4915254237288136,0.23389830508474577,2.9009171559125236e-05,0.00011585977622034125,0.00011943625823163715,1.325458417799963
-0.4576271186440678,0.23389830508474577,9.273103401333604e-05,7.464107736119498e-05,0.00011903921664234178,0.6777338386301209
-0.423728813559322,0.23389830508474577,0.00011878135071703593,3.428526924032139e-06,0.00011883082123351796,0.028856173380881815
-0.38983050847457623,0.23389830508474577,9.66347731021402e-05,-6.919919617573168e-05,0.00011885624983091767,-0.6214432067534932
-0.35593220338983056,0.23389830508474577,3.4931391104968474e-05,-0.00011396978707292672,0.00011920282903512201,-1.27338974542001
-0.3220338983050848,0.23389830508474577,-4.184057921943552e-05,-0.0001124776271183682,0.00012000771088391168,-1.9269256936677137
-0.288135593220339,0.23389830508474577,-0.00010288849216077116,-6.453014920144046e-05,0.00012145032719213744,-2.581423434080391
-0.2542372881355932,0.23389830508474577,-0.00012318062351108263,1.1594352181140964e-05,0.00012372507834339575,3.0477443457655933
-0.22033898305084743,0.23389830508474577,-9.334432498284126e-05,8.61031214335567e-05,0.00012699177346231564,2.3965253900303582
-0.18644067796610164,0.23389830508474577,-2.3538606519307262e-05,0.00012918686028847354,0.00013131378780640042,1.75102509996593
-0.15254237288135597,0.23389830508474577,6.023469798158186e-05,0.00012262022045662267,0.00013661602140950792,1.1141895164669133
-0.11864406779661019,0.23389830508474577,0.0001260000308587286,6.697554370388283e-05,0.00014269453819551497,0.48856929654423015
-0.0847457627118644,0.23389830508474577,0.00014808856757579072,-1.8348363719352333e-05,0.00014922093116525974,-0.12327303632153505
-0.05084745762711862,0.23389830508474577,0.00011710414514951647,-0.00010229064171436185,0.00015548876548977732,-0.7179806382154578
-0.016949152542372836,0.23389830508474577,4.363638505602335e-05,-0.00015372886534336083,0.00015980205924991925,-1.2942184115201085
0.016949152542372836,0.23389830508474577,-4.585008288392012e-05,-0.00015328285109286833,0.0001599933202968824,-1.8614462838179506
0.05084745762711873,0.23389830508474577,-0.00011899404483170059,-0.00010102059012438247,0.00015609209568228383,-2.4377055747455394
0.0847457627118644,0.23389830508474577,-0.00014937793274980065,-1.644745127388111e-05,0.00015028068886590405,-3.0319281002240146
0.11864406779661008,0.23389830508474577,-0.00012650228530566005,6.92176480089113e-05,0.00014420093960664806,2.6409284789480707
0.15254237288135597,0.23389830508474577,-5.9884681004085397e-05,0.00012485956587405525,0.00013847774625989047,2.0180043924474522
0.18644067796610164,0.23389830508474577,2.4670630735660254e-05,0.0001310772815077993,0.00013337876048445711,1.3847583373675558
0.22033898305084754,0.23389830508474577,9.505842171186553e-05,8.735173297861053e-05,0.00012909852358844906,0.7431740439249579
0.2542372881355932,0.23389830508474577,0.00012517378913000886,1.2012097092047326e-05,0.00012574882886815563,0.09567040020147015
0.2881355932203389,0.23389830508474577,0.00010480084987946915,-6.499144522540532e-05,0.0001233170956840368,-0.5550985444167221
0.3220338983050848,0.23389830508474577,4.331628603717137e-05,-0.0001137092406696559,0.00012168028620004054,-1.2068290431540727
0.35593220338983045,0.23389830508474577,-3.417739293285663e-05,-0.00011571667690507762,0.00012065837518233454,-1.8579853803522874
0.38983050847457634,0.23389830508474577,-9.675617429050584e-05,-7.109929386045897e-05,0.00012007025797753015,-2.5078715538133887
0.423728813559322,0.23389830508474577,-0.0001197593648248439,1.7794158769611214e-06,0.0001197725836079077,3.1267354860444523
0.4576271186440677,0.23389830508474577,-9.436471831861301e-05,7.360810462177472e-05,0.00011967812301904351,2.479142480746354
0.4915254237288136,0.23389830508474577,-3.094450503987484e-05,0.00011568670130535578,0.0001197538110085748,1.8321629520427203
0.5254237288135593,0.23389830508474577,4.5089766074544426e-05,0.00011120768118356875,0.00012000098065800715,1.1855957969115138
0.5593220338983051,0.23389830508474577,0.00010332654598093899,6.186119320207113e-05,0.00012042915896382848,0.5394601495453663
0.5932203389830508,0.23389830508474577,0.00012035805810380477,-1.281778353971359e-05,0.00012103866211004563,-0.10609719580416548
0.6271186440677967,0.23389830508474577,8.905597772353215e-05,-8.311803474366105e-05,0.00012181779372465543,-0.7509237945380183
0.6610169491525424,0.23389830508474577,2.1476477783667802e-05,-0.00012085545317586647,0.000122748847898204,-1.394928377478054
0.6949152542372881,0.23389830508474577,-5.577459458949804e-05,-0.0001105410640916783,0.0001238149112673566,-2.038085243912039
0.728813559322034,0.23389830508474577,-0.00011194405383120894,-5.562789005297627e-05,0.00012500373330389227,-2.680407416474021
0.7627118644067796,0.23389830508474577,-0.00012426065970066937,2.2653060516565285e-05,0.00012630864063876518,2.9612701276545264
0.7966101694915255,0.23389830508474577,-8.70432965464204e-05,9.3476175951809e-05,0.00012772756532652472,2.3205741862211213
0.8305084745762712,0.23389830508474577,-1.4180490065683431e-05,0.00012848079981593038,0.0001292609849097713,1.6807219089710712
0.8644067796610169,0.23389830508474577,6.606680920151858e-05,0.00011301473453563175,0.00013090895118451288,1.0417879035347126
0.8983050847457628,0.23389830508474577,0.00012199288169682695,5.2137586173717576e-05,0.00013266721929971188,0.40388666079808255
0.9322033898305084,0.23389830508474577,0.00013089256574979046,-3.1041148461316906e-05,0.000134522922456958,-0.2328482926287736
0.9661016949152543,0.23389830508474577,8.816389873833057e-05,-0.00010414501671380753,0.00013645166743965373,-0.8683089427840451
1.0,0.23389830508474577,9.450104653098236e-06,-0.00013809669598463642,0.00013841965871879474,-1.5024717743904454
-1.0,0.2508474576271187,-1.521165724438219e-05,-0.00019366401413182654,0.00019426050778728257,-1.64918202718727
-0.9661016949152542,0.2508474576271187,-0.00012475578967390197,-0.00014531607627274744,0.0001915222417383052,-2.2802121058997664
-0.9322033898305084,0.2508474576271187,-0.00018380653435846525,-4.2815635631016045e-05,0.0001887273714312728,-2.9127351108983515
-0.8983050847457628,0.2508474576271187,-0.00017089116349066502,7.331851108620331e-05,0.00018595535439209842,2.736308204131863
-0.864406779661017,0.2508474576271187,-9.262118922635651e-05,0.00015815068356855272,0.00018327663082593217,2.1005986663821776
-0.8305084745762712,0.2508474576271187,1.9358826492226132e-05,0.00017969973077224276,0.0001807394738367152,1.4634814516141104
-0.7966101694915254,0.2508474576271187,0.00012101449815653211,0.00013103881558953229,0.00017836950399433409,0.82514783830373
-0.7627118644067796,0.2508474576271187,0.0001731446112873303,3.253997421967011e-05,0.00017617578250161826,0.18576837588640477
-0.728813559322034,0.2508474576271187,0.00015647534855191926,-7.646257079912635e-05,0.00017415814490759837,-0.4545310511142542
-0.6949152542372881,0.2508474576271187,7.882430606741268e-05,-0.0001532272598212609,0.00017231327394992338,-1.0956735005019866
-0.6610169491525424,0.2508474576271187,-2.833549038114968e-05,-0.00016826992193877234,0.0001706389950873503,-1.7376242857513309
-0.6271186440677966,0.2508474576271187,-0.0001224549933769242,-0.00011667082803032166,0.0001691369489976198,-2.3803785687149817
-0.5932203389830508,0.2508474576271187,-0.00016665378866403054,-1.9697172833937088e-05,0.00016781377742523213,-3.0239462742120757
-0.5593220338983051,0.2508474576271187,-0.00014408679395066436,8.379424384851178e-05,0.00016668077121589358,2.614846857790001
-0.5254237288135593,0.2508474576271187,-6.436782035141977e-05,0.0001527435916000608,0.00016575228828489462,1.9696230839328301
-0.4915254237288136,0.2508474576271187,4.039184363109701e-05,0.00016002558423843644,0.00016504450503658676,1.323551975449441
-0.4576271186440678,0.2508474576271187,0.00012832450026028987,0.00010304718090880415,0.0001645779415969982,0.67657988763666
-0.423728813559322,0.2508474576271187,0.00016431987789545773,4.699797399886237e-06,0.00016438707481787645,0.028593719381711
-0.38983050847457623,0.2508474576271187,0.00013385979417841138,-9.567473705025497e-05,0.00016453601370861664,-0.6205491827267284
-0.35593220338983056,0.2508474576271187,4.878246608031098e-05,-0.0001577633919489735,0.00016513333048213532,-1.2709089649660419
-0.3220338983050848,0.2508474576271187,-5.726818318388614e-05,-0.00015616767853566832,0.00016633697311302435,-1.922278944385762
-0.288135593220339,0.2508474576271187,-0.00014194367060189298,-9.050488462799843e-05,0.0001683423290960001,-2.573975913512679
-0.2542372881355932,0.2508474576271187,-0.00017075798534019442,1.4220446566448922e-05,0.00017134909004132845,3.0585060069068764
-0.22033898305084743,0.2508474576271187,-0.00013068661157891363,0.0001171484102698414,0.0001755070952261729,2.410766113435899
-0.18644067796610164,0.2508474576271187,-3.550347782233819e-05,0.00017733427714706492,0.00018085337372787186,1.7683904519814133
-0.15254237288135597,0.2508474576271187,7.92517611956685e-05,0.00016967048598342938,0.00018726696309405024,1.1338197866494728
-0.11864406779661019,0.2508474576271187,0.00016978080360503686,9.480218429237027e-05,0.00019445558726705856,0.5092541246102784
-0.0847457627118644,0.2508474576271187,0.0002008344919678795,-2.0810674744935285e-05,0.00020190982479150374,-0.103252519773803
-0.05084745762711862,0.2508474576271187,0.00015934493505849711,-0.0001347316793156375,0.00020867063458955706,-0.701896035854268
-0.016949152542372836,0.2508474576271187,5.9570837400985956e-05,-0.00020454594670256399,0.0002130439602079882,-1.2874005446451375
0.016949152542372836,0.2508474576271187,-6.226871392590293e-05,-0.00020400786913550104,0.00021329932818270583,-1.8670416268073025
0.05084745762711873,0.2508474576271187,-0.00016164560645200426,-0.00013319869469229686,0.0002094545161913869,-2.452377914204671
0.0847457627118644,0.2508474576271187,-0.00020239872953048974,-1.851472652621337e-05,0.00020324379649548177,-3.050370041233493
0.11864406779661008,0.2508474576271187,-0.0001703791035505521,9.751161141548291e-05,0.00019630984001708598,2.621773723629133
0.15254237288135597,0.2508474576271187,-7.880229516948897e-05,0.00017237667565726944,0.00018953501004993965,1.9995816918151288
0.18644067796610164,0.2508474576271187,3.69169145739525e-05,0.0001796155873110268,0.00018337016602148126,1.3680863646537378
0.22033898305084754,0.2508474576271187,0.00013282049663609468,0.00011864516595978692,0.00017809536695906556,0.7290869189754755
0.2542372881355932,0.2508474576271187,0.00017324047133290095,1.4696997294763492e-05,0.0001738627695544045,0.08463316910995336
0.2881355932203389,0.2508474576271187,0.0001443301671695869,-9.111315741171816e-05,0.00017068334602044052,-0.563104558336354
0.3220338983050848,0.2508474576271187,5.911555978318633e-05,-0.0001577320900847339,0.00016844601999150375,-1.2122145054288467
0.35593220338983045,0.2508474576271187,-4.7833313166425125e-05,-0.00015997208144902957,0.00016697033476522784,-1.8613449676473586
0.38983050847457634,0.2508474576271187,-0.0001340074679345868,-9.807872536363258e-05,0.00016606455922680847,-2.509783050260579
0.423728813559322,0.2508474576271187,-0.00016554869608697117,2.6075069647293626e-06,0.00016556922983654738,3.1258432612285363
0.4576271186440677,0.2508474576271187,-0.00013038896637715684,0.0001017303060897046,0.0001653793751651285,2.479038046157158
0.4915254237288136,0.2508474576271187,-4.2849641769481974e-05,0.00015979961909501743,0.0001654448852720615,1.8327794060425875
0.5254237288135593,0.2508474576271187,6.207357552554659e-05,0.00015369095437663897,0.00016575294336972679,1.18694472079661
0.5593220338983051,0.2508474576271187,0.000142507582913058,8.5723401207807e-05,0.00016630367615406687,0.5415479396585499
0.5932203389830508,0.2508474576271187,0.00016620168462113373,-1.7231093267537734e-05,0.00016709252091610022,-0.1033067222231558
0.6271186440677967,0.2508474576271187,0.00012328667640020837,-0.00011427937364812158,0.00016810526410322992,-0.7475013749395294
0.6610169491525424,0.2508474576271187,3.028736301635167e-05,-0.00016659113033415542,0.0001693219686410946,-1.3909540613508613
0.6949152542372881,0.2508474576271187,-7.622506289431028e-05,-0.00015276150090727623,0.00017072298138412798,-2.0336282799263246
0.728813559322034,0.2508474576271187,-0.0001539160319409802,-7.742557993569614e-05,0.00017229296363123977,-2.675517769987349
0.7627118644067796,0.2508474576271187,-0.00017136327081594132,3.0304078517600204e-05,0.00017402214732481185,2.9665611034697967
0.7966101694915255,0.2508474576271187,-0.00012060383192603309,0.00012805252338937286,0.00017590546615051144,2.3262476801451926
0.8305084745762712,0.2508474576271187,-2.0588790242926564e-05,0.00017674512276511412,0.000177940261618675,1.6867622652553609
0.8644067796610169,0.2508474576271187,8.990960407953816e-05,0.00015607859758638194,0.00018012291783743416,1.0481707624119525
0.8983050847457628,0.2508474576271187,0.00016728265317794022,7.281880419416826e-05,0.00018244468832640662,0.4105657367107777
0.9322033898305084,0.2508474576271187,0.00018018792758866685,-4.142109879534786e-05,0.00018488752438743027,-0.22595176792923277
0.9661016949152543,0.2508474576271187,0.00012209556537073156,-0.00014219583807933173,0.00018742193961829043,-0.8613054846793278
1.0,0.2508474576271187,1.4296928102260423e-05,-0.00018947132285672256,0.00019000995852385633,-1.4954821007398984
-1.0,0.2677966101694915,-2.2645971709834183e-05,-0.00026529776866451025,0.00026626255105262293,-1.6559504850438946
-0.9661016949152542,0.2677966101694915,-0.00017251252130915436,-0.00019809022470390514,0.0002626790953457946,-2.287287262402677
-0.9322033898305084,0.2677966101694915,-0.00025270218616948065,-5.694558462920394e-05,0.0002590389825945058,-2.919948313658842
-0.8983050847457628,0.2677966101694915,-0.00023400930321785065,0.00010238992750877178,0.00025542915113149376,2.7291432695237017
-0.864406779661017,0.2677966101694915,-0.00012579991920099018,0.00021827274378056048,0.0002519297726519632,2.0936391532875107
-0.8305084745762712,0.2677966101694915,2.8269296377535303e-05,0.00024698748273884364,0.0002486000196044874,1.4568358447653553
-0.7966101694915254,0.2677966101694915,0.00016766972625172197,0.00017929063032883055,0.0002454755939498604,0.81887911097273
-0.7627118644067796,0.2677966101694915,0.00023865852027986638,4.3405807466194936e-05,0.00024257360413690475,0.17990764380871938
-0.728813559322034,0.2677966101694915,0.0002149660690302042,-0.00010649646252446672,0.00023989978608686513,-0.4599693280881252
-0.6949152542372881,0.2677966101694915,0.00010756507242972023,-0.0002116948481784502,0.0002374551611401783,-1.1006787716730018
-0.6610169491525424,0.2677966101694915,-4.011955466490125e-05,-0.0002317947197353693,0.00023524109072121818,-1.74218063788517
-0.6271186440677966,0.2677966101694915,-0.00016953705137151266,-0.00016021430368176755,0.00023326258785321866,-2.3844590138065413
-0.5932203389830508,0.2677966101694915,-0.00023002495149769908,-2.635607906779054e-05,0.0002315299574900545,-3.0275109364053003
-0.5593220338983051,0.2677966101694915,-0.0001985262004760149,0.00011625160122353666,0.0002300588773824628,2.6118487182560526
-0.5254237288135593,0.2677966101694915,-8.837773113942558e-05,0.0002111176116771622,0.00022886954651421329,1.9672493665503965
-0.4915254237288136,0.2677966101694915,5.6167822341754295e-05,0.00022095953261146075,0.0002279867086443639,1.3218690317964246
-0.4576271186440678,0.2677966101694915,0.00017747037438712194,0.00014224934067471587,0.00022744363852940933,0.6756783584646118
-0.423728813559322,0.2677966101694915,0.00022719931681471043,6.504747211903927e-06,0.00022729241363794337,0.028622316722412246
-0.38983050847457623,0.2677966101694915,0.0001853407039447776,-0.00013213295958561092,0.0002276187504306233,-0.61934409419574
-0.35593220338983056,0.2677966101694915,6.811722265067116e-05,-0.00021816790889402408,0.0002285545722422378,-1.2681630672522126
-0.3220338983050848,0.2677966101694915,-7.82560251558658e-05,-0.00021657467937590585,0.00023027938948149898,-1.9175332931549218
-0.288135593220339,0.2677966101694915,-0.0001955556053456635,-0.00012668275710058993,0.00023300325261402675,-2.5667589478010338
-0.2542372881355932,0.2677966101694915,-0.0002362955243836209,1.7293068445793614e-05,0.0002369274679305911,3.068538819992664
-0.22033898305084743,0.2677966101694915,-0.00018240706679962618,0.0001593153215872792,0.0002421852797155547,2.423666490440299
-0.18644067796610164,0.2677966101694915,-5.258947119600907e-05,0.0002431535967233479,0.0002487756500949728,1.7837964408247733
-0.15254237288135597,0.2677966101694915,0.00010456047967105685,0.0002342331604124547,0.0002565113396047984,1.1509444763081427
-0.11864406779661019,0.2677966101694915,0.00022904147062026035,0.00013325520774559274,0.00026498480268727235,0.5269259906004505
-0.0847457627118644,0.2677966101694915,0.00027246950654706917,-2.3695969701564932e-05,0.0002734979542484749,-0.08674915400391657
-0.05084745762711862,0.2677966101694915,0.0002167613835722879,-0.00017864360468670902,0.0002808897201814863,-0.6892932738489214
-0.016949152542372836,0.2677966101694915,8.12493438366767e-05,-0.00027367711869437616,0.0002854831364034418,-1.2822040984336238
0.016949152542372836,0.2677966101694915,-8.453222948598255e-05,-0.00027302634777810145,0.00028581302350123866,-1.871047961991926
0.05084745762711873,0.2677966101694915,-0.0002195590142309288,-0.0001767888217639833,0.00028188729703687365,-2.4636892793129017
0.0847457627118644,0.2677966101694915,-0.00027436700261461634,-2.0916287302945053e-05,0.0002751631210723345,-3.065505121650454
0.11864406779661008,0.2677966101694915,-0.00022975675449115278,0.00013653778864681408,0.0002672652876130193,2.6053962624048257
0.15254237288135597,0.2677966101694915,-0.00010399046954075663,0.0002375133818519838,0.00025928097561154253,1.9834836674298828
0.18644067796610164,0.2677966101694915,5.434602411487073e-05,0.0002459173670227191,0.00025185083232040517,1.353299033066034
0.22033898305084754,0.2677966101694915,0.00018505516740286414,0.00016112039638230085,0.00024536747362454504,0.7163674658262343
0.2542372881355932,0.2677966101694915,0.00023938044900517525,1.784518810496615e-05,0.00024004468355791786,0.07440975596076098
0.2881355932203389,0.2677966101694915,0.00019852922383688687,-0.0001274704290083161,0.00023592914823912896,-0.5707830601434775
0.3220338983050848,0.2677966101694915,8.056690364589494e-05,-0.00021855106184579952,0.00023292829926184025,-1.2176122045771187
0.35593220338983045,0.2677966101694915,-6.692180403836511e-05,-0.00022095274153543392,0.00023086498618840753,-1.8648917222532724
0.38983050847457634,0.2677966101694915,-0.00018551812607552314,-0.0001351702972859833,0.00022953863372198328,-2.5119225020645657
0.423728813559322,0.2677966101694915,-0.0002287411679594681,3.850523741905163e-06,0.0002287735746377815,3.1247607027307045
0.4576271186440677,0.2677966101694915,-0.0001800783871837232,0.00014056738776895402,0.0002284456522564577,2.478799642192662
0.4915254237288136,0.2677966101694915,-5.929052076229679e-05,0.00022065894207694644,0.0002284857425984859,1.833293826379426
0.5254237288135593,0.2677966101694915,8.544501405313647e-05,0.00021231638079869555,0.00022886479847717382,1.188186611847441
0.5593220338983051,0.2677966101694915,0.00019649093884273675,0.00011871939818351601,0.00022957130603007932,0.5435004218536522
0.5932203389830508,0.2677966101694915,0.00022942580073017602,-2.3177497619193232e-05,0.00023059356980750816,-0.10068234829935746
0.6271186440677967,0.2677966101694915,0.00017059181340476612,-0.0001571052283548693,0.00023191295689797535,-0.7442657252272143
0.6610169491525424,0.2677966101694915,4.263608505896079e-05,-0.00022958041467347078,0.00023350589403866817,-1.3871751697532533
0.6949152542372881,0.2677966101694915,-0.00010418132012974167,-0.0002110340346203242,0.0002353489138111921,-2.029367689686883
0.728813559322034,0.2677966101694915,-0.00021159570453765776,-0.0001076882088340265,0.00023742260317979134,-2.670823563392385
0.7627118644067796,0.2677966101694915,-0.00023626004551343522,4.054060447391584e-05,0.0002397130570434597,2.9716545078752197
0.7966101694915255,0.2677966101694915,-0.00016702560556463973,0.00017540992428469816,0.00024221105352935103,2.3317150096219934
0.8305084745762712,0.2677966101694915,-2.9752284993010537e-05,0.0002430956303387091,0.00024490954238673434,1.6925798882463643
0.8644067796610169,0.2677966101694915,0.00012237108545499925,0.00021547649111308413,0.00024779992085923223,1.0543072859386189
0.8983050847457628,0.2677966101694915,0.00022937311213463827,0.00010159989139286999,0.0002508676194756356,0.41697231504816457
0.9322033898305084,0.2677966101694915,0.00024800004473307484,-5.5287845884827096e-05,0.0002540881108792608,-0.21934790919842598
0.9661016949152543,0.2677966101694915,0.000169005275801712,-0.00019417789119290695,0.0002574254002171059,-0.8545985655916922
1.0,0.2677966101694915,2.1370955078655492e-05,-0.0002599585093115402,0.0002608354735929376,-1.4887716783644895
-1.0,0.2847457627118644,-3.3405765647517334e-05,-0.00036348094978405724,0.00036501280256234466,-1.6624440044522368
-0.9661016949152542,0.2847457627118644,-0.00023845723525845703,-0.00027011418092595977,0.0003603103159561342,-2.294027894176459
-0.9322033898305084,0.2847457627118644,-0.00034738213469691267,-7.578427963846345e-05,0.0003555525341590252,-2.9267997476474186
-0.8983050847457628,0.2847457627118644,-0.0003204513121703292,0.00014282018510876994,0.0003508370686603528,2.722333284511948
-0.864406779661017,0.2847457627118644,-0.0001709075074914197,0.00030113798681910174,0.00034625635477546283,2.0870052784144053
-0.8305084745762712,0.2847457627118644,4.103546449142666e-05,0.00033941106345082117,0.0003418826982151108,1.450478334858523
-0.7966101694915254,0.2847457627118644,0.00023218641924398762,0.0002453040302885678,0.0003377641197006564,0.8128632416066833
-0.7627118644067796,0.2847457627118644,0.00032887001676937906,5.790028723619335e-05,0.0003339280329530981,0.17427230817463862
-0.728813559322034,0.2847457627118644,0.0002952784457141631,-0.0001482127875851497,0.0003303882426890108,-0.46520036430031914
-0.6949152542372881,0.2847457627118644,0.00014679302844119348,-0.000292370145092744,0.00032715209756394535,-1.1054865779585616
-0.6610169491525424,0.2847457627118644,-5.668887904850556e-05,-0.0003192320029589212,0.0003242263109634084,-1.7465431945804795
-0.6271186440677966,0.2847457627118644,-0.00023461353251094267,-0.00021999217516766425,0.0003216209986494405,-2.388346129691603
-0.5932203389830508,0.2847457627118644,-0.0003173968119512789,-3.5283442714126366e-05,0.0003193519337135702,-3.030882119753601
-0.5593220338983051,0.2847457627118644,-0.00027348064393160996,0.00016117470701361506,0.00031744125249591096,2.609043854441729
-0.5254237288135593,0.2847457627118644,-0.00012135590681463672,0.0002916789606297242,0.00031591750852530946,1.965070290686493
-0.4915254237288136,0.2847457627118644,7.801155646479949e-05,0.0003049982395291574,0.0003148169770802488,1.3203878543061467
-0.4576271186440678,0.2847457627118644,0.00024529080036638775,0.0001963341351339497,0.0003141889071294197,0.6749931922380282
-0.423728813559322,0.2847457627118644,0.0003139751658653313,9.07043674070349e-06,0.00031410615658218063,0.02888099336166353
-0.38983050847457623,0.2847457627118644,0.0002564901747190212,-0.00018230627219576942,0.00031467886266686555,-0.617919584251032
-0.35593220338983056,0.2847457627118644,9.507091708084914e-05,-0.0003014267853880886,0.0003160642121847877,-1.2652689084432478
-0.3220338983050848,0.2847457627118644,-0.00010680793275129831,-0.0003000184186431728,0.00031846347675009134,-1.912810395519243
-0.288135593220339,0.2847457627118644,-0.00026911818902403573,-0.00017698368868708752,0.0003220990930208661,-2.5598632600290916
-0.2542372881355932,0.2847457627118644,-0.00032650371658899595,2.084818766061154e-05,0.00032716864745137097,3.0778263877049943
-0.22033898305084743,0.2847457627118644,-0.00025393420774275793,0.0002166246067879542,0.00033377957116632813,2.4353168237179106
-0.18644067796610164,0.2847457627118644,-7.682341741237437e-05,0.0003331344977048718,0.0003418778013033211,1.7974419116989928
-0.15254237288135597,0.2847457627118644,0.0001383560445599443,0.00032278523518072317,0.0003511875611648967,1.1658534643951697
-0.11864406779661019,0.2847457627118644,0.0003094000568749627,0.00018630498876616813,0.00036116193602509135,0.5419982772144883
-0.0847457627118644,0.2847457627118644,0.00036991948376416774,-2.7083396870243088e-05,0.0003709096046941619,-0.073083903616093
-0.05084745762711862,0.2847457627118644,0.0002949605920860092,-0.00023814334542841608,0.0003790962989209563,-0.6792207939313635
-0.016949152542372836,0.2847457627118644,0.00011081133639985978,-0.00036771770438146417,0.000384051379883339,-1.278102442669618
0.016949152542372836,0.2847457627118644,-0.00011480241082056496,-0.00036692949735537514,0.000384469569094463,-1.874021168125741
0.05084745762711873,0.2847457627118644,-0.0002983605581631899,-0.00023589596288517471,0.0003803497442788334,-2.472584790874245
0.0847457627118644,0.2847457627118644,-0.0003722219895120973,-2.3712903639794535e-05,0.00037297655593264043,-3.0779722802604677
0.11864406779661008,0.2847457627118644,-0.00031025870752542437,0.0001902890076643643,0.0003639647950464925,2.591433898608001
0.15254237288135597,0.2847457627118644,-0.0001376406669341767,0.0003267701517932222,0.0003545753591227829,1.9694571433029708
0.18644067796610164,0.2847457627118644,7.899778783942714e-05,0.0003364933205115128,0.0003456420189045117,1.3402044502190675
0.22033898305084754,0.2847457627118644,0.0002572119575133461,0.00021881315812715137,0.000337693928369204,0.7049069544343202
0.2542372881355932,0.2847457627118644,0.00033033050493417107,2.1498418800298806e-05,0.00033102934084606073,0.06498988871028856
0.2881355932203389,0.2847457627118644,0.00027281951276949136,-0.00017798873301897678,0.0003257460293380155,-0.5780638396704036
0.3220338983050848,0.2847457627118644,0.00010969808647656477,-0.00030250324118478045,0.00032177924281083975,-1.2229105388977266
0.35593220338983045,0.2847457627118644,-9.356297510203942e-05,-0.0003049292949992193,0.0003189606641243803,-1.8685118922396418
0.38983050847457634,0.2847457627118644,-0.0002566987689440152,-0.00018613923372347218,0.0003170836992160497,-2.514201156672485
0.423728813559322,0.2847457627118644,-0.00031590555908833775,5.703397361491336e-06,0.0003159570398082282,3.123540493246344
0.4576271186440677,0.2847457627118644,-0.0002485828801065266,0.00019418182110650714,0.00031543625018424137,2.478448503542877
0.4915254237288136,0.2847457627118644,-8.197934853114232e-05,0.0003045919420628768,0.00031543123617553385,1.8337109321455154
0.5254237288135593,0.2847457627118644,0.0001176032228519725,0.0002931872192552158,0.00031589438671773937,1.1893249069543161
0.5593220338983051,0.2847457627118644,0.000270850541790841,0.00016432351311312937,0.00031679998887347344,0.5453273355370634
0.5932203389830508,0.2847457627118644,0.00031659371216789713,-3.1192536936515766e-05,0.00031812663036090704,-0.09820848666010408
0.6271186440677967,0.2847457627118644,0.0002359395563183937,-0.0002159534523265547,0.000319848976561561,-0.7411994538421971
0.6610169491525424,0.2847457627118644,5.992179712670767e-05,-0.00031631225759699963,0.0003219379848309375,-1.383576135570994
0.6949152542372881,0.2847457627118644,-0.00014239901925877733,-0.0002914362531970196,0.0003243648722709951,-2.025291461050117
0.728813559322034,0.2847457627118644,-0.0002908505406333002,-0.00014967796757717476,0.0003271047706235982,-2.666316312341957
0.7627118644067796,0.2847457627118644,-0.0003256524375404588,5.4237759768507523e-05,0.0003301382205391384,2.9765564571453096
0.7966101694915255,0.2847457627118644,-0.00023121169407436408,0.00024027124708895104,0.00033345032561750047,2.336981836900707
0.8305084745762712,0.2847457627118644,-4.281664389345801e-05,0.0003342971979887617,0.0003370280130455576,1.6981823626462504
0.8644067796610169,0.2847457627118644,0.0001665726787006025,0.000297382487546593,0.0003408559830616058,1.0602094911824218
0.8983050847457628,0.2847457627118644,0.0003144944383153714,0.0001416248865776018,0.0003449121050781192,0.42312463579165427
0.9322033898305084,0.2847457627118644,0.00034127194979672167,-7.381509949534669e-05,0.00034916359007142205,-0.21301272648755198
0.9661016949152543,0.2847457627118644,0.0002338352523634317,-0.00026519796820330627,0.0003535659593159834,-0.8481625658720899
1.0,0.2847457627118644,3.16390738422674e-05,-0.0003566661513244222,0.00035806671793699575,-1.4823201053247475
-1.0,0.3016949152542373,-4.8910260242763514e-05,-0.0004980595249923992,0.0005004552966975862,-1.6686841057831536
-0.9661016949152542,0.3016949152542373,-0.0003294929043854284,-0.000368424936324023,0.0004942696710761297,-2.30046912744862
-0.9322033898305084,0.3016949152542373,-0.0004774867375963101,-0.00010090656108171044,0.0004880324975344414,-2.933328402111449
-0.8983050847457628,0.3016949152542373,-0.0004388406580765725,0.00019900777803679709,0.00048185601469756734,2.7158441503556596
-0.864406779661017,0.3016949152542373,-0.00023224666891437997,0.0004153228557872771,0.00047584828439443277,2.0806719939059777
-0.8305084745762712,0.3016949152542373,5.926387896610283e-05,0.000466347193391132,0.0004700977686969964,1.4443928513464486
-0.7966101694915254,0.3016949152542373,0.0003213654209341175,0.00033561939904061473,0.0004646677466583471,0.8070908140742377
-0.7627118644067796,0.3016949152542373,0.0004530622152033894,7.723807425490293e-05,0.00045959883698678806,0.16885669740057524
-0.728813559322034,0.3016949152542373,0.0004055412902007116,-0.00020611783103185476,0.0004549157046387099,-0.4702286869690709
-0.6949152542372881,0.3016949152542373,0.00020033859215303122,-0.0004036533444712975,0.00045063463471943933,-1.110102288427337
-0.6610169491525424,0.3016949152542373,-7.995127515185395e-05,-0.00043955811422001793,0.0004467701222945261,-1.7507194552798369
-0.6271186440677966,0.3016949152542373,-0.0003245249514880101,-0.00030204914799198654,0.00044333974775670666,-2.3920500592216123
-0.5932203389830508,0.3016949152542373,-0.0004378241866996618,-4.725719059901377e-05,0.000440367188290104,-3.0340724560395937
-0.5593220338983051,0.3016949152542373,-0.00037665854257892817,0.0002233171007788075,0.0004378837576320162,2.606417462522497
-0.5254237288135593,0.3016949152542373,-0.0001666509101549289,0.00040281757268590334,0.00043592949283115636,1.9630681688261327
-0.4915254237288136,0.3016949152542373,0.00010823138002395553,0.00042086179128480734,0.0004345557259838451,1.3190845660699297
-0.4576271186440678,0.3016949152542373,0.00033883388329250964,0.0002709266589713227,0.00043383136701769903,0.6744881453797654
-0.423728813559322,0.3016949152542373,0.0004336671697215146,1.2716385592163794e-05,0.0004338535704091849,0.02931451514298863
-0.38983050847457623,0.3016949152542373,0.00035476070824502613,-0.00025131830334762924,0.000434759760916352,-0.6163522481438263
-0.35593220338983056,0.3016949152542373,0.00013259637652842656,-0.00041611866776616397,0.0004367339518882811,-1.2623181068805256
-0.3220338983050848,0.3016949152542373,-0.00014565603780118905,-0.0004151903922712855,0.00043999857179577906,-1.908199207709102
-0.288135593220339,0.3016949152542373,-0.0003700233481336438,-0.00024681214240011254,0.00044478479268087075,-2.5533470293379175
-0.2542372881355932,0.3016949152542373,-0.0004505912014026733,2.4906595678070504e-05,0.00045127903705997175,3.0863734754498338
-0.22033898305084743,0.3016949152542373,-0.00035272875912754545,0.00029456627213729036,0.00045955072211510906,2.4458085087532075
-0.18644067796610164,0.3016949152542373,-0.00011100873547456803,0.00045616156789594534,0.0004694745098266249,1.8095102023918546
-0.15254237288135597,0.3016949152542373,0.0001836206587925284,0.0004442064556263498,0.00048066196183547375,1.1788193383152905
-0.11864406779661019,0.3016949152542373,0.00041853116508458075,0.0002594091658618332,0.0004924037484424633,0.5548573749853445
-0.0847457627118644,0.3016949152542373,0.0005026507817919171,-3.105455049042601e-05,0.0005036091674524879,-0.06170313568697858
-0.05084745762711862,0.3016949152542373,0.0004015988916169881,-0.0003188482232771319,0.0005127824677531176,-0.6710391570657694
-0.016949152542372836,0.3016949152542373,0.00015117444526295667,-0.0004956986891132302,0.0005182382688388975,-1.2747839148722382
0.016949152542372836,0.3016949152542373,-0.0001560237275262281,-0.0004947433238748349,0.0005187623348604816,-1.8762873289018536
0.05084745762711873,0.3016949152542373,-0.00040572977446738515,-0.00031612302664977475,0.0005143446489150727,-2.4796970884986576
0.0847457627118644,0.3016949152542373,-0.0005054463900828134,-2.6963987195634286e-05,0.0005061651013782301,-3.0882962952220794
0.11864406779661008,0.3016949152542373,-0.0004195665080105581,0.0002642501247810381,0.0004958469351432637,2.5795369156446517
0.15254237288135597,0.3016949152542373,-0.0001827310454642044,0.00044905539303439454,0.00048481066509485497,1.9572566722034617
0.18644067796610164,0.3016949152542373,0.00011369092084139495,0.00046025397069499323,0.00047408790642904195,1.328626408632505
0.22033898305084754,0.3016949152542373,0.00035677681241467243,0.0002972323211292915,0.00046436703866734616,0.6946031344032148
0.2542372881355932,0.3016949152542373,0.00045533136480207137,2.5685305731567892e-05,0.0004560552452313657,0.056350419007628064
0.2881355932203389,0.3016949152542373,0.0003746271586121846,-0.00024807855425926445,0.00044932001630597953,-0.584904752397053
0.3220338983050848,0.3016949152542373,0.00014927150401775234,-0.0004183007794863908,0.00044413683030192837,-1.22803029224264
0.35593220338983045,0.3016949152542373,-0.00013068982394108408,-0.0004205137336238976,0.0004403539828911076,-1.8721190178487246
0.38983050847457634,0.3016949152542373,-0.00035499813320552444,-0.0002561501653789507,0.00043776315720155237,-2.5165472008383145
0.423728813559322,0.3016949152542373,-0.00043607713818523945,8.444760253759363e-06,0.0004361588981364153,3.1222297837759045
0.4576271186440677,0.3016949152542373,-0.000342984726918597,0.00026816722276118345,0.0004353759091438923,2.4780088309952593
0.4915254237288136,0.3016949152542373,-0.00011327200565920808,0.0004203054442293004,0.0004353012907341871,1.834041384909229
0.5254237288135593,0.3016949152542373,0.00016184547094957427,0.0004047042420839842,0.00043586635569594213,1.190367117577031
0.5593220338983051,0.3016949152542373,0.00037325208543479777,0.00022732493420408211,0.00043702831143109695,0.5470390494141004
0.5932203389830508,0.3016949152542373,0.00043673825034746345,-4.1999400820720096e-05,0.00043875306151166995,-0.09587125820359799
0.6271186440677967,0.3016949152542373,0.0003261777392316963,-0.00029680672296269616,0.0004410058371112055,-0.7382873831041025
0.6610169491525424,0.3016949152542373,8.409080320043264e-05,-0.00043570931720763,0.0004437497856725489,-1.3801429299292944
0.6949152542372881,0.3016949152542373,-0.00019464542184330878,-0.00040233863980269224,0.00044694879049264705,-2.021388038307974
0.728813559322034,0.3016949152542373,-0.00039973590079950185,-0.0002079065125767472,0.00045057064746809055,-2.661987028240713
0.7627118644067796,0.3016949152542373,-0.0004487590318123584,7.256710533776908e-05,0.0004545884439911205,2.9812742510454537
0.7966101694915255,0.3016949152542373,-0.0003199264552785633,0.0003291038476681085,0.00045897960666794346,2.34205527239926
0.8305084745762712,0.3016949152542373,-6.139334908608309e-05,0.00045964095085786975,0.0004637229205220853,1.7035784764605655
0.8644067796610169,0.3016949152542373,0.00022676781023986704,0.00041029786009923164,0.00046879416993281074,1.06588966908544
0.8983050847457628,0.3016949152542373,0.0004311860878440335,0.00019724999916158933,0.00047416136970391165,0.42903957350033506
0.9322033898305084,0.3016949152542373,0.00046954600680034685,-9.857191393386361e-05,0.00047978106957104546,-0.206925396149265
0.9661016949152543,0.3016949152542373,0.00032340333963030017,-0.0003622366049278169,0.00048559765035846564,-0.8419757030134384
1.0,0.3016949152542373,4.647375997847414e-05,-0.0004893451092430378,0.000491546992978919,-1.4761089860970542
-1.0,0.3186440677966102,-7.116726814305495e-05,-0.0006825325617988713,0.0006862328161569334,-1.6746903075356308
-0.9661016949152542,0.3186440677966102,-0.0004551352430914902,-0.0005026359316895209,0.0006780788813474009,-2.306640064320202
-0.9322033898305084,0.3186440677966102,-0.0006562571854379387,-0.0001344146877209428,0.0006698811847738699,-2.939566670318213
-0.8983050847457628,0.3186440677966102,-0.0006009895643138639,0.0002770433953259092,0.0006617714857168417,2.7096464282859354
-0.864406779661017,0.3186440677966102,-0.0003156754404460178,0.0005726300978350736,0.000653877827003939,2.074616267842505
-0.8305084745762712,0.3186440677966102,8.521457228846294e-05,0.0006406665113950564,0.0006463088287757005,1.4385632303309985
-0.7966101694915254,0.3186440677966102,0.0004445861977346587,0.0004591860519079391,0.0006391468669116367,0.8015511094193523
-0.7627118644067796,0.3186440677966102,0.0006239991296386667,0.00010304113571237792,0.0006324495153280698,0.16365341945325862
-0.728813559322034,0.3186440677966102,0.0005569074973874975,-0.00028644456974028084,0.0006262558999164002,-0.47506045602288705
-0.6949152542372881,0.3186440677966102,0.0002734322738409344,-0.0005571108560667058,0.0006205946457432592,-1.114532490894435
-0.6610169491525424,0.3186440677966102,-0.0001125647881159394,-0.0006051104604060783,0.0006154912678636817,-1.7547175772284453
-0.6271186440677966,0.3186440677966102,-0.00044870032574237736,-0.0004146772137615082,0.0006109739552013025,-2.395581102878352
-0.5932203389830508,0.3186440677966102,-0.0006037659465824606,-6.332307261483402e-05,0.0006070775319331116,-3.0370945248130328
-0.5593220338983051,0.3186440677966102,-0.0005186557716054751,0.00030923480127541877,0.0006038459834589599,2.6039545590961204
-0.5254237288135593,0.3186440677966102,-0.0002288586804505939,0.0005560819332581003,0.0006013346922585238,1.9612246375225393
-0.4915254237288136,0.3186440677966102,0.0001500088138648651,0.000580546778615825,0.0005996142146400095,1.317934763713942
-0.4576271186440678,0.3186440677966102,0.000467795509462978,0.0003737668286182014,0.0005987773215887815,0.6741285616823621
-0.423728813559322,0.3186440677966102,0.0005986820071052524,1.7890412744260922e-05,0.000598949257032458,0.029874106859035843
-0.38983050847457623,0.3186440677966102,0.0004904091739001988,-0.0003462022116635417,0.0006002975338998181,-0.6147051819537627
-0.35593220338983056,0.3186440677966102,0.00018477309078745113,-0.0005740286761315058,0.0006030340090744774,-1.259381460933029
-0.3220338983050848,0.3186440677966102,-0.00019852789424721793,-0.0005740401315570103,0.0006074005247217229,-1.90376322301895
-0.288135593220339,0.3186440677966102,-0.0005084020328957567,-0.00034361463057651766,0.0006136315192350983,-2.547244265782989
-0.2542372881355932,0.3186440677966102,-0.0006211938798583194,2.9462245621820907e-05,0.0006218921613033184,3.0941997461410393
-0.22033898305084743,0.3186440677966102,-0.0004890420276558779,0.00040064011113908834,0.0006321982311485167,2.455232888689214
-0.18644067796610164,0.3186440677966102,-0.0001590196612790498,0.0006244001661036182,0.0006443312968524265,1.8201709525938299
-0.15254237288135597,0.3186440677966102,0.0002444082689265614,0.0006106699608665808,0.0006577637896878102,1.1900919288041434
-0.11864406779661019,0.3186440677966102,0.000566921649557243,0.0003600645788573506,0.00067160007272515,0.5658451773573087
-0.0847457627118644,0.3186440677966102,0.0006836084498248038,-3.569435340970478e-05,0.0006845396990220568,-0.05216724245124128
-0.05084745762711862,0.3186440677966102,0.0005471451999896025,-0.00042842935495337195,0.0006949241556151466,-0.6643054033849894
-0.016949152542372836,0.3186440677966102,0.00020632792255394634,-0.0006699769695337001,0.0007010280674345272,-1.272050398671539
0.016949152542372836,0.3186440677966102,-0.00021221769758715146,-0.0006688187387956828,0.0007016800243226533,-1.8780502070483074
0.05084745762711873,0.3186440677966102,-0.0005521636136482416,-0.00042512382959786915,0.0006968607656691851,-2.4854618633774717
0.0847457627118644,0.3186440677966102,-0.000687005227015363,-3.0727785583842206e-05,0.0006876920668099328,-3.0968952940341055
0.11864406779661008,0.3186440677966102,-0.0005681758426786088,0.0003659508653859542,0.0006758282504307408,2.5693901744738583
0.15254237288135597,0.3186440677966102,-0.00024331127413725775,0.0006165771417097482,0.0006628482087184506,1.9466528216502559
0.18644067796610164,0.3186440677966102,0.00016231756501895034,0.0006293966391383182,0.0006499900932108824,1.3184020041004347
0.22033898305084754,0.3186440677966102,0.0004940312470593039,0.0004039014346305307,0.0006381247855769057,0.685358436587176
0.2542372881355932,0.3186440677966102,0.0006270580053104233,3.0410401864712055e-05,0.0006277949781301696,0.04845898450059254
0.2881355932203389,0.3186440677966102,0.0005141254553663393,-0.0003451926674750863,0.0006192600112506953,-0.5912842190407485
0.3220338983050848,0.3186440677966102,0.0002030529493956865,-0.0005779177112730515,0.0006125515335556424,-1.2329169363101382
0.35593220338983045,0.3186440677966102,-0.00018235587851068622,-0.0005795319534547764,0.0006075450201446089,-1.8756483683139948
0.38983050847457634,0.3186440677966102,-0.0004906667807755432,-0.000352287416264067,0.0006040366821763783,-2.5189032658115456
0.423728813559322,0.3186440677966102,-0.0006016804870532884,1.2470406402071278e-05,0.0006018097037573547,3.1208696593897085
0.4576271186440677,0.3186440677966102,-0.0004730217357167238,0.00037022239156520606,0.0006006781015458469,2.4775052354277545
0.4915254237288136,0.3186440677966102,-0.00015640979866806266,0.0005797773408832872,0.0006005046129057454,1.8342990266940273
0.5254237288135593,0.3186440677966102,0.0002227019629683824,0.000558427722815471,0.0006011968778352423,1.191323335207745
0.5593220338983051,0.3186440677966102,0.0005142354880900109,0.0003143235670665434,0.0006026918300629332,0.5486464496272664
0.5932203389830508,0.3186440677966102,0.0006022880362878253,-5.657453282532991e-05,0.0006049392997812665,-0.09365787215465386
0.6271186440677967,0.3186440677966102,0.00045074247593098696,-0.0004078770543026789,0.0006078918251095558,-0.7355159267325051
0.6610169491525424,0.3186440677966102,0.00011784877620837981,-0.0006000384370051611,0.0006115018069780411,-1.3768627204513177
0.6949152542372881,0.3186440677966102,-0.0002660705769270597,-0.0005552669997619411,0.0006157231463335823,-2.017646322885557
0.728813559322034,0.3186440677966102,-0.0005493095147999159,-0.00028861120732906833,0.0006205137968213612,-2.6578264420511863
0.7627118644067796,0.3186440677966102,-0.0006182588180067364,9.709697134655266e-05,0.0006258368700290516,2.985815982137071
0.7966101694915255,0.3186440677966102,-0.0004424996559552303,0.0004507635422692992,0.0006316594941577808,2.346943408785306
0.8305084745762712,0.3186440677966102,-8.774613226584816e-05,0.0006318862596802583,0.0006379495504350815,1.7087777441735923
0.8644067796610169,0.3186440677966102,0.00030875276414988814,0.0005659261950210475,0.0006446710227559458,1.0713600703341928
0.8983050847457628,0.3186440677966102,0.0005911522795966523,0.00027450852143967575,0.0006517790622713463,0.43473278526994585
0.9322033898305084,0.3186440677966102,0.0006459357705846787,-0.00013165567331385893,0.000659216380285372,-0.2010674765890799
0.9661016949152543,0.3186440677966102,0.0004471129938233471,-0.0004948358823977318,0.0006669127227411532,-0.8360188713901447
1.0,0.3186440677966102,6.781968202941715e-05,-0.0006713715991735948,0.0006747883619680182,-1.4701212328213868
-1.0,0.3355932203389831,-0.00010301299872365852,-0.0009354076228296734,0.0009410627496367611,-1.680480661150661
-0.9661016949152542,0.3355932203389831,-0.0006284995911463747,-0.0006858811175293492,0.0009302927729776628,-2.312565492135452
-0.9322033898305084,0.3355932203389831,-0.0009018792954491325,-0.00017911473933234748,0.0009194935309211905,-2.9455419972059245
-0.8983050847457628,0.3355932203389831,-0.0008230780215459867,0.00038535775157103145,0.0009088223293075145,2.7037144621336893
-0.864406779661017,0.3355932203389831,-0.0004291701826836175,0.0007892999466554509,0.0008984327751673952,2.068817008086371
-0.8305084745762712,0.3355932203389831,0.00012206252093819941,0.0008800340168472307,0.0008884588509469982,1.4329736121683458
-0.7966101694915254,0.3355932203389831,0.0006147812719146154,0.0006282494168391988,0.0008790070204814895,0.7962326649506679
-0.7627118644067796,0.3355932203389831,0.0008592282222846742,0.0001374752852941258,0.0008701566479876959,0.15865386609295862
-0.728813559322034,0.3355932203389831,0.0007646776149606285,-0.0003978108716298567,0.00086196597636379,-0.479703033251609
-0.6949152542372881,0.3355932203389831,0.00037321654150763436,-0.0007686652038977507,0.0008544804167083587,-1.1187847142287204
-0.6610169491525424,0.3355932203389831,-0.00015822981899498475,-0.0008328431388789436,0.0008477407443298435,-1.7585462472218256
-0.6271186440677966,0.3355932203389831,-0.0006201330613059976,-0.0005692497333294165,0.0008417899219047231,-2.3989497069096304
-0.5932203389830508,0.3355932203389831,-0.0008323608226492915,-8.488681134095189e-05,0.0008366781399206267,-3.039960835338353
-0.5593220338983051,0.3355932203389831,-0.0007140340891281559,0.0004279670451639563,0.0008324664991358169,2.601640192455728
-0.5254237288135593,0.3355932203389831,-0.0003142856713678124,0.0007673641051019808,0.0008292304583323507,1.9595213152639825
-0.4915254237288136,0.3355932203389831,0.00020772815084097587,0.0008005529413345784,0.0008270646870295309,1.3169146153370157
-0.4576271186440678,0.3355932203389831,0.0006455111520584754,0.0005155006683785098,0.0008260905437847297,0.6738824083246606
-0.423728813559322,0.3355932203389831,0.0008260805428660066,2.5217808404447725e-05,0.0008264653659788289,0.030517580273334743
-0.38983050847457623,0.3355932203389831,0.0006775468405904329,-0.0004766121521561532,0.0008283893195696077,-0.6130295803042524
-0.35593220338983056,0.3355932203389831,0.000257232137220792,-0.0007913443207379976,0.0008321022812031338,-1.2565127296117815
-0.3220338983050848,0.3355932203389831,-0.0002705122375776812,-0.0007929919484330281,0.0008378622207492675,-1.8995461432697183
-0.288135593220339,0.3355932203389831,-0.0006981402723175881,-0.0004776455551138379,0.0008458989987886748,-2.5415710933317777
-0.2542372881355932,0.3355932203389831,-0.0008556493455066339,3.4464981367827606e-05,0.0008563431773574282,3.1013350869470813
-0.22033898305084743,0.3355932203389831,-0.0006769565748732858,0.0005450957682619417,0.0008691372738763694,2.4636797515755267
-0.18644067796610164,0.3355932203389831,-0.00022620569384232484,0.0008545102299883278,0.0008839438608200141,1.829580133878834
-0.15254237288135597,0.3355932203389831,0.0003262340155480111,0.0008388630535444178,0.0009000665839272364,1.1998952063449058
-0.11864406779661019,0.3355932203389831,0.0007689061650643973,0.0004985645862292421,0.0009163969321838511,0.5752549546864304
-0.0847457627118644,0.3355932203389831,0.0009305018581376935,-4.108984994911674e-05,0.0009314086556214416,-0.044130135144062686
-0.05084745762711862,0.3355932203389831,0.0007459244108327533,-0.0005773675215381601,0.0009432690398838011,-0.6587034768058725
-0.016949152542372836,0.3355932203389831,0.0002817318945887758,-0.0009074576020624376,0.0009501853292750266,-1.269768420874699
0.016949152542372836,0.3355932203389831,-0.0002888832043261452,-0.0009060536538304746,0.0009509924970057833,-1.8794437195740588
0.05084745762711873,0.3355932203389831,-0.0007520207849215636,-0.0005733584732245836,0.0009456612500110545,-2.490187672824708
0.0847457627118644,0.3355932203389831,-0.0009346322449621137,-3.505937364349065e-05,0.0009352895770846558,-3.1040988226015145
0.11864406779661008,0.3355932203389831,-0.000770432606955888,0.0005057241979711737,0.0009215874165126349,2.5607203624191994
0.15254237288135597,0.3355932203389831,-0.0003248921102817283,0.0008460650769486426,0.0009063007214801426,1.9374371821564724
0.18644067796610164,0.3355932203389831,0.0002302480717503749,0.0008606205843367173,0.0008908883009271357,1.3093813181426426
0.22033898305084754,0.3355932203389831,0.0006830938829755849,0.0005491000464561821,0.0008764291836633712,0.6770796773302284
0.2542372881355932,0.3355932203389831,0.0008628954879728933,3.5637874286105465e-05,0.0008636311025244575,0.041276878574190795
0.2881355932203389,0.3355932203389831,0.0007052527861767516,-0.00047959161264799567,0.0008528713896786409,-0.597195776304986
0.3220338983050848,0.3355932203389831,0.0002761794615502155,-0.000797807173281831,0.0008442578875687883,-1.2375347435077846
0.35593220338983045,0.3355932203389831,-0.00025415822418426906,-0.0007982211438874664,0.0008377072265830805,-1.8790524651264298
0.38983050847457634,0.3355932203389831,-0.0006778059310711201,-0.00048426888161121333,0.0008330289490120756,-2.5212242005970267
0.423728813559322,0.3355932203389831,-0.0008297967710784812,1.8339459729529973e-05,0.0008299994078765624,3.1194951048783794
0.4576271186440677,0.3355932203389831,-0.0006520805857746516,0.000510939641249818,0.0008284131863657806,2.476961190513016
0.4915254237288136,0.3355932203389831,-0.0002158520794947159,0.0007994811313105992,0.0008281076014286239,1.834499037553256
0.5254237288135593,0.3355932203389831,0.0003063949545884307,0.0007702619936383467,0.000828964056543447,1.1922050510731035
0.5593220338983051,0.3355932203389831,0.0007082892131405164,0.0004344124457740994,0.0008308957711377805,0.550160714036086
0.5932203389830508,0.3355932203389831,0.0008303402614267656,-7.62360175275651e-05,0.0008338326451481331,-0.09155629850209632
0.6271186440677967,0.3355932203389831,0.0006226331849006774,-0.0005604347198842562,0.000837710664962137,-0.7328726457684184
0.6610169491525424,0.3355932203389831,0.00016495481158336532,-0.0008261609840420121,0.0008424678399902095,-1.373723626267601
0.6949152542372881,0.3355932203389831,-0.00036371455879449094,-0.0007660884477273891,0.0008480446863346481,-2.0140556518361006
0.728813559322034,0.3355932203389831,-0.0007547486694672294,-0.00040041218532050227,0.0008543860206111131,-2.653825176543504
0.7627118644067796,0.3355932203389831,-0.0008515872410255514,0.00012992663909551825,0.0008614416756949756,2.990190241233889
0.7966101694915255,0.3355932203389831,-0.0006117962100608353,0.0006173761250802074,0.0008691650490349077,2.3516549504300386
0.8305084745762712,0.3355932203389831,-0.0001250511913338646,0.0008685535020236584,0.0008775095363194521,1.7137900640844428
0.8644067796610169,0.3355932203389831,0.00042042668501712294,0.0007803769239699112,0.0008864235674547623,1.0766327342705202
0.8983050847457628,0.3355932203389831,0.0008104341884548202,0.0003817533295354589,0.0008958455103575793,0.4402188492710181
0.9322033898305084,0.3355932203389831,0.0008884607497580282,-0.00017586963652159657,0.0009057000788952357,-0.19542236513345032
0.9661016949152543,0.3355932203389831,0.0006179314535296107,-0.0006760396630946719,0.0009158978694911211,-0.8302748960619082
1.0,0.3355932203389831,9.842775670090709e-05,-0.0009210944870343838,0.0009263385327914991,-1.4643407389881573
-1.0,0.3525423728813559,-0.0001484483419108232,-0.0012820588375570287,0.0012906245670891877,-1.686072009338361
-0.9661016949152542,0.3525423728813559,-0.000867659865406289,-0.0009361049730819642,0.001276372266490323,-2.318266993352022
-0.9322033898305084,0.3525423728813559,-0.001239328271726301,-0.00023875178057165402,0.0012621160714554884,-2.951278029786706
-0.8983050847457628,0.3525423728813559,-0.001127268575599684,0.0005356164776612027,0.0012480462542216672,2.6980256909388864
-0.864406779661017,0.3525423728813559,-0.0005835925132660855,0.0010876752038724545,0.0012343490473359679,2.063254905827439
-0.8305084745762712,0.3525423728813559,0.00017426251285897475,0.0012086930197892796,0.0012211905008946197,1.427608662190016
-0.7966101694915254,0.3525423728813559,0.0008497778670130149,0.0008595648178409503,0.0012087076153210648,0.7911236647677791
-0.7627118644067796,0.3525423728813559,0.0011828694697211947,0.00018343241079368908,0.0011970077826514267,0.153848654514536
-0.728813559322034,0.3525423728813559,0.0010498403433029891,-0.0005521276168090556,0.0011861743765862528,-0.4841646481603776
-0.6949152542372881,0.3525423728813559,0.0005094447659671652,-0.0010602309827346765,0.0011762753531048237,-1.12286716343799
-0.6610169491525424,0.3525423728813559,-0.00022209420209255275,-0.0011460507175232943,0.001167372297829097,-1.762214533745208
-0.6271186440677966,0.3525423728813559,-0.0008567236728146353,-0.0007813645584143241,0.0011595283630455144,-2.402166384209644
-0.5932203389830508,0.3525423728813559,-0.0011471801737850964,-0.000113837794279581,0.0011528145534005216,-3.042683754521932
-0.5593220338983051,0.3525423728813559,-0.0009828013248608743,0.0005919734009955399,0.0011473146698419382,2.599459678796611
-0.5254237288135593,0.3525423728813559,-0.0004315833845636432,0.0010585281978081334,0.0011431299853412755,1.9579403262514379
-0.4915254237288136,0.3525423728813559,0.0002874303588289385,0.0011035677211427084,0.001140384990397823,1.3160015929757094
-0.4576271186440678,0.3525423728813559,0.0008903184801540219,0.0007107665484688448,0.0011392348671481584,0.6737208566918882
-0.423728813559322,0.3525423728813559,0.0011393180777046234,3.5568659096689914e-05,0.001139873155967143,0.031209116206144378
-0.38983050847457623,0.3525423728813559,0.0009355811895175771,-0.0006557998968954679,0.0011425347552469602,-0.6113663184559212
-0.35593220338983056,0.3525423728813559,0.00035774009115282915,-0.001090296916644327,0.0011474865311898702,-1.2537518221091748
-0.3220338983050848,0.3525423728813559,-0.0003685599861367869,-0.0010946150407914637,0.0011549972081819273,-1.8955763599705422
-0.288135593220339,0.3525423728813559,-0.0009582724572296173,-0.0006630189598345643,0.0011652811864030913,-2.5363305255769197
-0.2542372881355932,0.3525423728813559,-0.0011777449040497369,3.979537371241791e-05,0.0011784170445067548,3.1078160362797997
-0.22033898305084743,0.3525423728813559,-0.0009358141032351922,0.0007419462175213625,0.0011942496495742187,2.4712358809162227
-0.18644067796610164,0.3525423728813559,-0.00031994736950189783,0.0011693096715349807,0.0012122918077741962,1.8378797925761765
-0.15254237288135597,0.3525423728813559,0.00043660693368703673,0.0011516606686358159,0.0012316443927637111,1.2084265956082507
-0.11864406779661019,0.3525423728813559,0.0010440858312573,0.0006890380853508714,0.0012509551175386917,0.5833339348778264
-0.0847457627118644,0.3525423728813559,0.001267565937685625,-4.7326606173666154e-05,0.0012684491373455835,-0.037319268134877515
-0.05084745762711862,0.3525423728813559,0.0010175455354215308,-0.0007799874797334925,0.0012820996003420698,-0.6540017827983695
-0.016949152542372836,0.3525423728813559,0.00038486321061476396,-0.0012312694941154717,0.0012900171541588407,-1.2678437624919578
0.016949152542372836,0.3525423728813559,-0.0003935435889191092,-0.001229568479264888,0.0012910132460904895,-1.8805595261569503
0.05084745762711873,0.3525423728813559,-0.0010249510496509575,-0.0007751270902409533,0.0012850473377296287,-2.4940986521724304
0.0847457627118644,0.3525423728813559,-0.0012725920889535638,-4.0006141473087784e-05,0.0012732207649197214,-3.110166267480202
0.11864406779661008,0.3525423728813559,-0.0010459521935789137,0.0006977465778016318,0.0012573250486991937,2.5532954894444093
0.15254237288135597,0.3525423728813559,-0.00043497832641434524,0.0011604454735604263,0.0012392900554580057,1.9294244075077416
0.18644067796610164,0.3525423728813559,0.00032488707569086107,0.0011767920072101763,0.001220815727366221,1.301427638011445
0.22033898305084754,0.3525423728813559,0.0009433492690296428,0.000746878755911424,0.0012032188992076869,0.6696784240290734
0.2542372881355932,0.3525423728813559,0.0011866886158506803,4.1267604075028385e-05,0.0011874059483326235,0.034761419461943784
0.2881355932203389,0.3525423728813559,0.0009671081676292594,-0.0006653948525532934,0.0011739031125691944,-0.6026439367626649
0.3220338983050848,0.3525423728813559,0.000375662942892141,-0.0011005719383110396,0.0011629192740943383,-1.2418622762968383
0.35593220338983045,0.3525423728813559,-0.00035381893680250817,-0.0010988729087182997,0.001154430383156591,-1.8822974832926898
0.38983050847457634,0.3525423728813559,-0.0009358076002033581,-0.0006654256034793694,0.0011482713522352856,-2.523475098279431
0.423728813559322,0.3525423728813559,-0.0011439037922089529,2.683789276396371e-05,0.0011442185797818673,3.118135287448546
0.4576271186440677,0.3525423728813559,-0.0008985612063857119,0.0007048871653754588,0.0011420499803127687,2.4763981407879836
0.4915254237288136,0.3525423728813559,-0.00029773387316060773,0.0011020676009257714,0.0011415771792732642,1.8346566834406368
0.5254237288135593,0.3525423728813559,0.0004214681495174263,0.0010620831069443175,0.0011426530213123048,1.1930243007846948
0.5593220338983051,0.3525423728813559,0.0009753250833686521,0.0006001167692926972,0.0011451633748222883,0.5515930456739632
0.5932203389830508,0.3525423728813559,0.001144409354490118,-0.0001027625929037316,0.0011490138907536264,-0.08955512527976528
0.6271186440677967,0.3525423728813559,0.0008597539240367367,-0.0007699447582318862,0.0011541194654910401,-0.7303460123137552
0.6610169491525424,0.3525423728813559,0.00023062875395510633,-0.0011372496673079052,0.0011603992536807434,-1.3707145417632294
0.6949152542372881,0.3525423728813559,-0.0004972005693673015,-0.001056642090408688,0.0011677760544738063,-2.0106057725645616
0.728813559322034,0.3525423728813559,-0.0010368824601384484,-0.0005552187017442539,0.001176177300796668,-2.6499738701272024
0.7627118644067796,0.3525423728813559,-0.0011727167118225478,0.00017386574342492594,0.0011855352305708132,2.994405881831491
0.7966101694915255,0.3525423728813559,-0.0008455514911150637,0.0008455439682538763,0.0011957850669653892,2.356198938705967
0.8305084745762712,0.3525423728813559,-0.00017776014276986354,0.0011936980247911713,0.0012068610701932126,1.7186254740728468
0.8644067796610169,0.3525423728813559,0.0005725548742784942,0.0010758202950404722,0.0012186912616741908,1.0817193686905684
0.8983050847457628,0.3525423728813559,0.0011110159776826065,0.0005305445934881844,0.0012311921329937016,0.4455113952790673
0.9322033898305084,0.3525423728813559,0.001221879420911561,-0.00023495986380301146,0.0012442650267710258,-0.18997491218504
0.9661016949152543,0.3525423728813559,0.0008537371667870035,-0.0009236788669903137,0.0012577956110902953,-0.8247280851592611
1.0,0.3525423728813559,0.00014218367475879158,-0.0012636829099955424,0.0012716566731562084,-1.4587522454283453
-1.0,0.3694915254237288,-0.0002131100432480589,-0.0017572739681576738,0.0017701490586099823,-1.691480080444214
-0.9661016949152542,0.3694915254237288,-0.0011975196226915613,-0.0012778252664094678,0.0017512540244652593,-2.323763660838367
-0.9322033898305084,0.3694915254237288,-0.0017029010732386438,-0.0003183232053318483,0.0017323976819108443,-2.9567954542700425
-0.8983050847457628,0.3694915254237288,-0.0015439178331410905,0.0007439560265506581,0.0017138123715658385,2.6925600855075755
-0.864406779661017,0.3694915254237288,-0.0007937340548479555,0.0014984900245508157,0.0016957258338256458,2.0579122710048234
-0.8305084745762712,0.3694915254237288,0.000248057944567816,0.0016599121612765365,0.0016783447580926132,1.422453705870644
-0.7966101694915254,0.3694915254237288,0.001174144838707385,0.0011760580655854455,0.0016618449614485015,0.786212232026131
-0.7627118644067796,0.3694915254237288,0.0016280723957434137,0.0002447735351342159,0.00164636988835553,0.14922793395207742
-0.728813559322034,0.3694915254237288,0.001441184458188267,-0.0007658512714751277,0.001632035787764312,-0.4884540933193351
-0.6949152542372881,0.3694915254237288,0.0006954355528005267,-0.0014619637821220973,0.001618940612973719,-1.1267885089208125
-0.6610169491525424,0.3694915254237288,-0.00031131468983197435,-0.001576734358790799,0.001607173940274235,-1.7657317399444306
-0.6271186440677966,0.3694915254237288,-0.0011831269519750366,-0.001072410496161537,0.0015968261197660733,-2.4052416301626467
-0.5932203389830508,0.3694915254237288,-0.001580635668022112,-0.0001527150348587448,0.001587995905818279,-3.0452753939705546
-0.5593220338983051,0.3694915254237288,-0.0013524426699552364,0.0008184236201838467,0.001580796760368164,2.5973988126144074
-0.5254237288135593,0.3694915254237288,-0.000592617513769909,0.0014596479258108374,0.0015753626836226345,1.9564646605399818
-0.4915254237288136,0.3694915254237288,0.00039743820956023414,0.0015207793010137973,0.0015718545775008762,1.3151749133731085
-0.4576271186440678,0.3694915254237288,0.0012274292514179341,0.000979685953785734,0.001570467171029517,0.6736184924034224
-0.423728813559322,0.3694915254237288,0.0015706338066604681,5.014980267988153e-05,0.0015714342357647626,0.0319188153580556
-0.38983050847457623,0.3694915254237288,0.0012911953320626124,-0.0009019554690697049,0.0015750266834961978,-0.609747446838311
-0.35593220338983056,0.3694915254237288,0.000497001073404283,-0.0015014142827256282,0.0015815356193704657,-1.2511274640008732
-0.3220338983050848,0.3694915254237288,-0.0005021707097875819,-0.0015099156039349176,0.0015912324006174304,-1.8918705040373918
-0.288135593220339,0.3694915254237288,-0.0013148919438932983,-0.0009191526010336614,0.0016043011961918005,-2.5315161097771783
-0.2542372881355932,0.3694915254237288,-0.0016201150690669866,4.522852497066809e-05,0.0016207462653015582,3.1136830429131455
-0.22033898305084743,0.3694915254237288,-0.0012921743837696754,0.0010103559891861812,0.0016402846896057181,2.4779838257974216
-0.18644067796610164,0.3694915254237288,-0.00045041974656884675,0.0016000540980191675,0.0016622427815114961,1.8451980533390666
-0.15254237288135597,0.3694915254237288,0.0005857586725650486,0.0015804195869046868,0.0016854789506716328,1.215858065217623
-0.11864406779661019,0.3694915254237288,0.0014192715900341439,0.0009508747433819169,0.0017083602149077558,0.5902886460273769
-0.0847457627118644,0.3694915254237288,0.0017279740714233414,-5.448209385628083e-05,0.0017288327536411161,-0.03151902093934646
-0.05084745762711862,0.3694915254237288,0.0013888577750141426,-0.0010558741090797713,0.0017446478307791048,-0.6500266108756443
-0.016949152542372836,0.3694915254237288,0.0005259628724626219,-0.0016730616527007188,0.0017537879680699126,-1.2662073873002375
0.016949152542372836,0.3694915254237288,-0.0005364955343483166,-0.001671002153216873,0.00175501443140252,-1.881462457605458
0.05084745762711873,0.3694915254237288,-0.0013978526159924075,-0.0010499853461224395,0.0017482737666363003,-2.4973612773519314
0.0847457627118644,0.3694915254237288,-0.0017340943018019585,-4.560012801414965e-05,0.0017346937537262674,-3.115302490691127
0.11864406779661008,0.3694915254237288,-0.001421563643868491,0.0009614645909452808,0.001716175210522002,2.546920947457072
0.15254237288135597,0.3694915254237288,-0.0005837977716858685,0.0015911371034784659,0.0016948560765714675,1.922452086077392
0.18644067796610164,0.3694915254237288,0.000456437233316777,0.0016092256915617525,0.0016727050769159142,1.2944174897077423
0.22033898305084754,0.3694915254237288,0.0013014078227550194,0.0010164493836717031,0.0016513121057796874,0.663071531630659
0.2542372881355932,0.3694915254237288,0.0016311413134976467,4.710063845213383e-05,0.0016318212079579754,0.028867856827365073
0.2881355932203389,0.3694915254237288,0.0013258645738887613,-0.0009220239333279977,0.0016149442720796465,-0.6076410424052859
0.3220338983050848,0.3694915254237288,0.000511079899728957,-0.00151725684889372,0.0016010218641298634,-1.2458888951869016
0.35593220338983045,0.3694915254237288,-0.0004919839030595344,-0.0015120878809945456,0.0015901125497021487,-1.8853603715005156
0.38983050847457634,0.3694915254237288,-0.0012913316878858658,-0.0009140459822078943,0.0015820927867001204,-2.5256295840788288
0.423728813559322,0.3694915254237288,-0.0015762649430393187,3.9065684140459907e-05,0.0015767489649059893,3.1168140218026585
0.4576271186440677,0.3694915254237288,-0.0012377506347023383,0.0009720947636602474,0.001573847153710205,2.475835049404477
0.4915254237288136,0.3694915254237288,-0.0004104956079333994,0.0015186739441471013,0.0015731742410692862,1.834786553918784
0.5254237288135593,0.3694915254237288,0.0005796493097904798,0.0014639749952952228,0.001574552669551015,1.1937930410861979
0.5593220338983051,0.3694915254237288,0.0013427025428166747,0.0008286859059928788,0.0015778372695806125,0.5529544183246377
0.5932203389830508,0.3694915254237288,0.0015768291080160784,-0.0001385537883110007,0.0015829046680524103,-0.08764351451374776
0.6271186440677967,0.3694915254237288,0.0011867584338816092,-0.0010576249457028572,0.0015896433896198548,-0.7279252395796587
0.6610169491525424,0.3694915254237288,0.00032211525359799047,-0.0015651455366997085,0.0015979483056881147,-1.3678250261209641
0.6949152542372881,0.3694915254237288,-0.0006796819561486689,-0.0014569808112071423,0.0016077190817241375,-2.0072868463781224
0.728813559322034,0.3694915254237288,-0.001424293053262815,-0.0007694790493205074,0.0016188603117365946,-2.6462632827990267
0.7627118644067796,0.3694915254237288,-0.0016146023701780704,0.0002326740328038523,0.0016312810975812385,2.998471846384719
0.7966101694915255,0.3694915254237288,-0.0011682097071588574,0.0011579974743631963,0.0016448927231074145,2.3605845407740214
0.8305084745762712,0.3694915254237288,-0.000252105946375041,0.001640344197582725,0.0016596043187281026,1.7232939698255665
0.8644067796610169,0.3694915254237288,0.0007798091229664286,0.0014827628129821602,0.0016753172319965072,1.08663128655836
0.8983050847457628,0.3694915254237288,0.0015230251000783166,0.0007368759787345359,0.0016919195203982213,0.4506232056430413
0.9322033898305084,0.3694915254237288,0.001680206227234288,-0.00031393125013878467,0.0017092822458127214,-0.18471116230045012
0.9661016949152543,0.3694915254237288,0.0011791756134428145,-0.0012621283467155746,0.0017272588372682386,-0.8193639587266724
1.0,0.3694915254237288,0.00020456861104496942,-0.0017336598455408674,0.0017456874796668651,-1.4533413229499967
-1.0,0.3864406779661017,-0.0003049304165497784,-0.002408745755646579,0.002427970072773268,-1.6967195315054764
-0.9661016949152542,0.3864406779661017,-0.0016523878933534398,-0.0017445416942602644,0.0024028756674271544,-2.3290725845481335
-0.9322033898305084,0.3864406779661017,-0.0023396923401038236,-0.0004244960663571368,0.0023778892229650204,-2.962112587042278
-0.8983050847457628,0.3864406779661017,-0.002114605064932676,0.0010326901256368882,0.002353296300134528,2.687299721677651
-0.864406779661017,0.3864406779661017,-0.0010797396210265654,0.0020640156913139893,0.002329377260815636,2.052772863876197
-0.8305084745762712,0.3864406779661017,0.00035218989537620876,0.0022793416883040763,0.0023063903083489538,1.4174947905693114
-0.7966101694915254,0.3864406779661017,0.0016217347722637001,0.0016090971890256286,0.0022845606657078237,0.7814866263886417
-0.7627118644067796,0.3864406779661017,0.0022403900483206453,0.0003266529460366279,0.002264078116092418,0.1447816407889425
-0.728813559322034,0.3864406779661017,0.0019781938768893893,-0.0010617112483789527,0.002245101732549567,-0.49258049640275425
-0.6949152542372881,0.3864406779661017,0.0009493757169370529,-0.0020153512641267325,0.002227769056640962,-1.1305576936382513
-0.6610169491525424,0.3864406779661017,-0.00043583497562097763,-0.0021688492912515776,0.0022122069012949505,-1.7691072686862677
-0.6271186440677966,0.3864406779661017,-0.0016332926554182966,-0.0014717136572651194,0.002198541786553993,-2.408185812502159
-0.5932203389830508,0.3864406779661017,-0.002177286099897702,-0.00020492969619207498,0.002186908992434098,-3.047747502328117
-0.5593220338983051,0.3864406779661017,-0.0018607078461298449,0.0011309727518539526,0.002177460230196012,2.595444041469431
-0.5254237288135593,0.3864406779661017,-0.0008136582217827017,0.002012080609329463,0.0021703704937899916,1.9550784345435086
-0.4915254237288136,0.3864406779661017,0.0005492172100079781,0.0020950521340984854,0.002165844636246923,1.3144157777430558
-0.4576271186440678,0.3864406779661017,0.0016915005783585532,0.0013499090267523107,0.0021641230526693003,0.6735533109284751
-0.423728813559322,0.3864406779661017,0.002164331295149464,7.063018941618425e-05,0.002165483451523083,0.03262214653066515
-0.38983050847457623,0.3864406779661017,0.0017810650116937303,-0.001240047479280408,0.0021702327816963047,-0.6081975513191813
-0.35593220338983056,0.3864406779661017,0.0006897580099779862,-0.0020666122054054203,0.002178681280008493,-1.2486594181146549
-0.3220338983050848,0.3864406779661017,-0.0006843334855321573,-0.002081482235335534,0.002191091192862132,-1.8884362560121577
-0.288135593220339,0.3864406779661017,-0.0018037711414851598,-0.00127275022327429,0.002207596761571151,-2.527114735111749
-0.2542372881355932,0.3864406779661017,-0.0022275297367951355,5.038253405104847e-05,0.0022280994430330103,3.118978389770675
-0.22033898305084743,0.3864406779661017,-0.00178250249129039,0.0013765430186617183,0.0022521513745045563,2.484001030901799
-0.18644067796610164,0.3864406779661017,-0.0006316409314680615,0.0021895614231148873,0.0022788482818956444,1.8516495144961196
-0.15254237288135597,0.3864406779661017,0.0007876405842761771,0.0021681235397754003,0.0023067590627820515,1.2223382030783814
-0.11864406779661019,0.3864406779661017,0.0019311464327131066,0.0013106796891577698,0.0023339254041531117,0.596290930769387
-0.0847457627118644,0.3864406779661017,0.0023571440098827195,-6.261496817076546e-05,0.00235797551250326,-0.026557667344338752
-0.05084745762711862,0.3864406779661017,0.0018966304299989258,-0.001431811842762206,0.0023764031941301573,-0.6466450317339598
-0.016949152542372836,0.3864406779661017,0.0007190600583258089,-0.002276149365379569,0.002387028131589012,-1.2648071781876185
0.016949152542372836,0.3864406779661017,-0.0007318347640459723,-0.0022736580755926333,0.0023885357787929032,-1.8821996058503192
0.05084745762711873,0.3864406779661017,-0.001907553604867481,-0.001424683138294502,0.0023808575765852926,-2.5001016001457033
0.0847457627118644,0.3864406779661017,-0.002364600562934008,-5.184611327579817e-05,0.0023651688822766198,-3.1196702163750256
0.11864406779661008,0.3864406779661017,-0.0019339728374458641,0.001323551243259728,0.00234350993800171,2.5414344409867553
0.15254237288135597,0.3864406779661017,-0.000785298958321867,0.0021811983482111275,0.00231825811508994,1.9163793243992462
0.18644067796610164,0.3864406779661017,0.0006389479145561237,0.0022008119066487175,0.002291686602911136,1.2882403173376629
0.22033898305084754,0.3864406779661017,0.00179379412145008,0.001384089227173055,0.0022657008493897355,0.657181589033797
0.2542372881355932,0.3864406779661017,0.0022411069401767594,5.278981188614395e-05,0.0022417285923026927,0.023550884933265875
0.2881355932203389,0.3864406779661017,0.001817392280880346,-0.0012761834095792132,0.002220711326915025,-0.6122048368117334
0.3220338983050848,0.3864406779661017,0.0006955163779535237,-0.0020904943420821517,0.002203159010666066,-1.2496120431227085
0.35593220338983045,0.3864406779661017,-0.0006833198822752884,-0.0020798693226631833,0.0021892424399476917,-1.8882265285327353
0.38983050847457634,0.3864406779661017,-0.0017810197601934939,-0.001255220437520978,0.0021789010379019156,-2.5276683362569687
0.423728813559322,0.3864406779661017,-0.0021712086364169105,5.655614235710736e-05,0.0021719451052201336,3.115550312330955
0.4576271186440677,0.3864406779661017,-0.0017043964364183788,0.0013400928279012666,0.002168136527036082,2.4752882367362807
0.4915254237288136,0.3864406779661017,-0.0005657496365093981,0.0020920939663782215,0.0021672401379096585,1.8349020704146244
0.5254237288135593,0.3864406779661017,0.0007970322290437245,0.0020173012846264626,0.0021690469905214092,1.1945227161515162
0.5593220338983051,0.3864406779661017,0.0018480066373829762,0.0011438708490957557,0.0021733773375147217,0.5542553625348399
0.5932203389830508,0.3864406779661017,0.002172051977692277,-0.00018684524956948676,0.0021800736090975496,-0.08581121011462378
0.6271186440677967,0.3864406779661017,0.0016375875958138364,-0.0014525812528261585,0.0021889918752762316,-0.7256002091387246
0.6610169491525424,0.3864406779661017,0.000449464660500993,-0.0021535934655411986,0.0021999962036015025,-1.3650452310431047
0.6949152542372881,0.3864406779661017,-0.0009291359845464989,-0.0020084527130145575,0.002212956388678893,-2.0040894354330194
0.728813559322034,0.3864406779661017,-0.0019561970039033215,-0.0010659039713796904,0.002227747291387272,-2.6426843684231027
0.7627118644067796,0.3864406779661017,-0.0022225412154050755,0.0003113816667518121,0.002244247757392977,3.002397028448378
0.7966101694915255,0.3864406779661017,-0.0016134544561920707,0.001585855228969344,0.00226233774875801,2.3648208956790295
0.8305084745762712,0.3864406779661017,-0.0003568077351335431,0.002253824846201068,0.0022818935551870943,1.7278053846291865
0.8644067796610169,0.3864406779661017,0.0010621856269306255,0.002043175393669869,0.0023027817949940526,1.091379356727608
0.8983050847457628,0.3864406779661017,0.0020877465544476017,0.0010228680186922527,0.0023248536855620073,0.455566292314339
0.9322033898305084,0.3864406779661017,0.0023101674870349997,-0.00041946886823392105,0.002347941215101232,-0.1796181763712027
0.9661016949152543,0.3864406779661017,0.0016282149686004267,-0.0017247082744155557,0.002371856364920096,-0.8141690814104566
1.0,0.3864406779661017,0.0002933048180991446,-0.0023783760416218923,0.002396393188039307,-1.448094383494687
-1.0,0.4033898305084746,-0.00043506034108930765,-0.003301857359748654,0.0033303963014204626,-1.7018039571401524
-0.9661016949152542,0.4033898305084746,-0.0022795247769462645,-0.002382026996433027,0.0032970116500321417,-2.334209170930582
-0.9322033898305084,0.4033898305084746,-0.0032143651257209764,-0.0005661626283787385,0.003263844862003087,-2.9672457974511186
-0.8983050847457628,0.4033898305084746,-0.002896279612506037,0.001432665435137294,0.003231248341253772,2.6822284481382344
-0.864406779661017,0.4033898305084746,-0.0014690459116397257,0.002842383747961398,0.003199568918023251,2.0478217470840003
-0.8305084745762712,0.4033898305084746,0.0004988847140916093,0.0031296164745519064,0.0031691300439932995,1.412718711415772
-0.7966101694915254,0.4033898305084746,0.0022391823461017438,0.0022016000946253854,0.003140219826023047,0.7769353857726614
-0.7627118644067796,0.4033898305084746,0.0030824116086613307,0.0004359502368004942,0.0031130875243360148,0.14049969093286271
-0.728813559322034,0.4033898305084746,0.002715015903281902,-0.001471091466509194,0.0030879477744790006,-0.49655312665584295
-0.6949152542372881,0.4033898305084746,0.001296099158082565,-0.002777461183034284,0.003064989991964825,-1.1341837706212456
-0.6610169491525424,0.4033898305084746,-0.0006094633884841132,-0.0029827613438185535,0.0030443900630636677,-1.7723504966549044
-0.6271186440677966,0.4033898305084746,-0.0022539596092007843,-0.0020194780086393665,0.0030263220825428633,-2.4110090751444995
-0.5932203389830508,0.4033898305084746,-0.002998378507719972,-0.00027506329368611783,0.003010968862524238,-3.05011135945746
-0.5593220338983051,0.4033898305084746,-0.002559434888459814,0.0015622037584192552,0.0029985308954694045,2.593582601706936
-0.5254237288135593,0.4033898305084746,-0.0011170098551112483,0.0027726897929139247,0.002989233966109832,1.9537670422591844
-0.4915254237288136,0.4033898305084746,0.0007585612831542899,0.0028852859318734218,0.002983335403364389,1.3137074611409396
-0.4576271186440678,0.4033898305084746,0.002330166579701161,0.001859420801780419,0.002981127640214344,0.6735065718929779
-0.423728813559322,0.4033898305084746,0.002981281685437374,9.931142923293602e-05,0.002982935340884981,0.03329934235010612
-0.38983050847457623,0.4033898305084746,0.002455587438779688,-0.001704349478270602,0.002989099666048936,-0.6067349750900869
-0.35593220338983056,0.4033898305084746,0.0009563041966062775,-0.0028434367057331837,0.0029999416687591708,-1.2463603229848015
-0.3220338983050848,0.4033898305084746,-0.000932816750335146,-0.0028678018583765128,0.003015698026761566,-1.8852745691153912
-0.288135593220339,0.4033898305084746,-0.0024739546350851906,-0.0017605220929939663,0.0030364271070419846,-2.523108786266098
-0.2542372881355932,0.4033898305084746,-0.0030614037757560053,5.464573508872175e-05,0.003061891447222862,3.123744654279074
-0.22033898305084743,0.4033898305084746,-0.0024568547986994855,0.0018763845469388198,0.0030914324301015363,2.489359314022744
-0.18644067796610164,0.4033898305084746,-0.0008829116909670042,0.0029964946959522235,0.003123861955483312,1.8573359860176626
-0.15254237288135597,0.4033898305084746,0.0010612883322994376,0.0029736948561053735,0.0031574030502142868,1.2279947561052926
-0.11864406779661019,0.4033898305084746,0.0026299126803005684,0.0018049540459944009,0.003189717826729706,0.6014836605649511
-0.0847457627118644,0.4033898305084746,0.0032172677001932395,-7.174864176349408e-05,0.0032180676379314345,-0.022297414302497293
-0.05084745762711862,0.4033898305084746,0.002591225051381438,-0.0019444411252839714,0.003239644819513759,-0.6437535652977986
-0.016949152542372836,0.4033898305084746,0.0009833753698009072,-0.0030998248379593162,0.0032520672108615114,-1.263602841301174
0.016949152542372836,0.4033898305084746,-0.0009988612398514826,-0.003096814462476158,0.0032539181906555575,-1.8828059340269034
0.05084745762711873,0.4033898305084746,-0.0026044860075398303,-0.001935820219938016,0.0032451112904477762,-2.5024166575820357
0.0847457627118644,0.4033898305084746,-0.0032263560576567497,-5.870385569806949e-05,0.0032268900745845404,-3.123399565864724
0.11864406779661008,0.4033898305084746,-0.002633410965212107,0.001820588306825335,0.0032014676469782574,2.5367009123532935
0.15254237288135597,0.4033898305084746,-0.001058516363135655,0.0029896411023847018,0.0031714997733081974,1.9110846831509882
0.18644067796610164,0.4033898305084746,0.0008917548272458402,0.0030103019226018907,0.0031396089465309048,1.2827978294153728
0.22033898305084754,0.4033898305084746,0.002470633920323651,0.001885749906793604,0.0031080676761013263,0.6519371812897131
0.2542372881355932,0.4033898305084746,0.0030781002476369082,5.776978799299924e-05,0.003078642311621659,0.018765797692401772
0.2881355932203389,0.4033898305084746,0.0024908558398019144,-0.0017645794178835343,0.0030525568523278143,-0.6163566037873983
0.3220338983050848,0.4033898305084746,0.0009468628818345605,-0.0028788201212831765,0.003030537016388503,-1.2530351268196627
0.35593220338983045,0.4033898305084746,-0.0009480206402878856,-0.002859867690024518,0.0030129033072533247,-1.8908879413402429
0.38983050847457634,0.4033898305084746,-0.002455219443094408,-0.001723372921385682,0.0029996861068975595,-2.5295778171897814
0.423728813559322,0.4033898305084746,-0.002989629745181589,8.143887165999427e-05,0.002990738755406728,3.11435893441166
0.4576271186440677,0.4033898305084746,-0.0023462406015378576,0.001846710034162522,0.002985830355291685,2.474771406315048
0.4915254237288136,0.4033898305084746,-0.000779472727365278,0.002881129841619112,0.002984708846265316,1.8350152373159534
0.5254237288135593,0.4033898305084746,0.0010956958980188438,0.0027789245340266522,0.0029871342565660768,1.1952239831591973
0.5593220338983051,0.4033898305084746,0.0025428597829408707,0.0015783692940207093,0.002992889156652068,0.5555058095722178
0.5932203389830508,0.4033898305084746,0.0029911800547014495,-0.00025199806189312324,0.003001776331248159,-0.08404856700174003
0.6271186440677967,0.4033898305084746,0.0022589587553848893,-0.0019947344517713727,0.0030136124819912873,-0.7233614242631523
0.6610169491525424,0.4033898305084746,0.0006266138283442314,-0.0029626829579221447,0.003028223109190359,-1.362365860726156
0.6949152542372881,0.4033898305084746,-0.001270131240726513,-0.0027679361458653948,0.003045439849390831,-2.0010045178111957
0.728813559322034,0.4033898305084746,-0.0026863957358185296,-0.0014758424287373575,0.0030650991703182074,-2.6392283373448793
0.7627118644067796,0.4033898305084746,-0.0030587851814975666,0.0004167169099080076,0.003087040616764279,3.006190167173624
0.7966101694915255,0.4033898305084746,-0.0022276915330874,0.00217171700724365,0.003111103393675724,2.368916997148692
0.8305084745762712,0.4033898305084746,-0.0005040521813518581,0.0030963623979174764,0.003137121084810536,1.7321692934889792
0.8644067796610169,0.4033898305084746,0.0014469373971352185,0.0028147932314478443,0.0031649152859173084,1.0959739838996316
0.8983050847457628,0.4033898305084746,0.002861751945236631,0.0014191061230356444,0.0031942896525679852,0.46035194902549426
0.9322033898305084,0.4033898305084746,0.003175945968790283,-0.0005604994473647448,0.003225025957596533,-0.17468392289155876
0.9661016949152543,0.4033898305084746,0.0022476649965001154,-0.0023569663681580755,0.0032568832335716506,-0.809130975219544
1.0,0.4033898305084746,0.0004192595600394913,-0.003262772991674761,0.0032895996981223688,-1.4429987169181668
-1.0,0.4203389830508475,-0.0006191597512810218,-0.00452624118715684,0.004568393380820147,-1.7067458976810348
-0.9661016949152542,0.4203389830508475,-0.0031440213121005714,-0.0032528237099319107,0.0045239067296793155,-2.3391873707176867
-0.9322033898305084,0.4203389830508475,-0.004415698200034535,-0.0007551794991809927,0.00447980877602733,-2.97220981916344
-0.8983050847457628,0.4203389830508475,-0.003966940069909641,0.0019865127020665735,0.004436535386281344,2.6773316280078867
-0.864406779661017,0.4203389830508475,-0.0019990223935125646,0.003913526487463344,0.004394517049442621,2.0430451536914003
-0.8305084745762712,0.4203389830508475,0.0007052287583799706,0.004296668407207806,0.004354159735602704,1.4081130122241217
-0.7966101694915254,0.4203389830508475,0.0030907179645772104,0.003012285533947186,0.004315831516010301,0.772547423082835
-0.7627118644067796,0.4203389830508475,0.004240122468588174,0.0005818459045536571,0.004279857848722564,0.13637212068061083
-0.728813559322034,0.4203389830508475,0.0037259000031267682,-0.0020373132401067112,0.004246525176142744,-0.5003812427369758
-0.6949152542372881,0.4203389830508475,0.0017695153016130437,-0.003826778595447236,0.0042160904664411344,-1.1376757675122076
-0.6610169491525424,0.4203389830508475,-0.0008513652276895131,-0.004101361995363356,0.004188793736617943,-1.7754706637902153
-0.6271186440677966,0.4203389830508475,-0.003109460280003778,-0.0027708135568949663,0.004164871066431002,-2.4137212458726243
-0.5932203389830508,0.4203389830508475,-0.004128083499765991,-0.0003692670398946654,0.004144566506619577,-3.052377690737073
-0.5593220338983051,0.4203389830508475,-0.0035197953539793016,0.0021569882326038536,0.004128142145019448,2.591802607089889
-0.5254237288135593,0.4203389830508475,-0.0015332419101807672,0.0038196449392095947,0.0041158860791771475,1.952517231913732
-0.4915254237288136,0.4203389830508475,0.0010472256719365513,0.003972398358050944,0.0041081176130934715,1.3130353025423709
-0.4576271186440678,0.4203389830508475,0.003208888717197797,0.002560390300942249,0.004105187607469172,0.6734625681973975
-0.423728813559322,0.4203389830508475,0.004105104714214967,0.00013935940703891075,0.004107469507981792,0.03393480034272618
-0.38983050847457623,0.4203389830508475,0.003383997992211964,-0.0023419080558939173,0.004115334221367134,-0.6053728893648748
-0.35593220338983056,0.4203389830508475,0.0013245573550034807,-0.003910885169026203,0.004129100990773044,-1.2442372108222421
-0.3220338983050848,0.4203389830508475,-0.0012719370331212914,-0.00394918113177057,0.004148958354546123,-1.8823814299673371
-0.288135593220339,0.4203389830508475,-0.00339268678832437,-0.002432918042575864,0.004174854949044566,-2.5194777835737705
-0.2542372881355932,0.4203389830508475,-0.0042059815227530675,5.707468529239472e-05,0.004206368753383546,3.1280236014927563
-0.22033898305084743,0.4203389830508475,-0.003383934514538011,0.0025589881445081345,0.004242573879429183,2.4941246484025283
-0.18644067796610164,0.4203389830508475,-0.0012307915141396566,0.004101232654631531,0.004281933796626728,1.862347455367093
-0.15254237288135597,0.4203389830508475,0.0014326899435345695,0.004077905193260777,0.004322257655384313,1.2329372504071794
-0.11864406779661019,0.4203389830508475,0.00358428918385171,0.00248377049689865,0.004360761955752747,0.6059857649549676
-0.0847457627118644,0.4203389830508475,0.004393518505878377,-8.184687161502885e-05,0.00439428080257611,-0.018626848945019037
-0.05084745762711862,0.4203389830508475,0.0035416275904465843,-0.002643897359993221,0.00441965148395115,-0.6412704635750056
-0.016949152542372836,0.4203389830508475,0.0013452439228544282,-0.004225263421887164,0.00443424539198209,-1.2625626148679077
0.016949152542372836,0.4203389830508475,-0.0013640044961785553,-0.0042216302461977225,0.004436515547274319,-1.8833078735950664
0.05084745762711873,0.4203389830508475,-0.0035577199176292595,-0.0026334842068666733,0.004426354039174017,-2.5043822229677275
0.0847457627118644,0.4203389830508475,-0.004404598496762115,-6.60621801569475e-05,0.00440509388428058,-3.1265953213176396
0.11864406779661008,0.4203389830508475,-0.0035886331614356456,0.00250274390194259,0.004375158854952174,2.5326079508469515
0.15254237288135597,0.4203389830508475,-0.0014294394297823588,0.004097344068986792,0.004339530562523757,1.9064638935758529
0.18644067796610164,0.4203389830508475,0.0012414558625047844,0.0041181817009641975,0.0043012362386532395,1.2780031131363478
0.22033898305084754,0.4203389830508475,0.0034007106348089185,0.0025706319907652236,0.004262978026409244,0.6472729438234142
0.2542372881355932,0.4203389830508475,0.00422648445006012,6.115867188881234e-05,0.004226926920322518,0.014469331298961247
0.2881355932203389,0.4203389830508475,0.0034136461940407615,-0.0024376499121229822,0.004194653434094664,-0.6201197438594802
0.3220338983050848,0.4203389830508475,0.0012895893608375628,-0.003962593774641745,0.004167156121675182,-1.256165865537294
0.35593220338983045,0.4203389830508475,-0.0013138739571550368,-0.003931204102071344,0.004144952408343526,-1.8933416763941282
0.38983050847457634,0.4203389830508475,-0.003383095056900098,-0.0023657351642562816,0.004128199974737243,-2.5313491901865572
0.423728813559322,0.4203389830508475,-0.004115167685378418,0.00011666188160447833,0.004116820991177812,3.1132510032214546
0.4576271186440677,0.4203389830508475,-0.0032288720742730628,0.002543911323459559,0.004110608190237328,2.4742957850164813
0.4915254237288136,0.4203389830508475,-0.0010736471645868518,0.003966565016550771,0.00410930118932037,1.8351365276006169
0.5254237288135593,0.4203389830508475,0.0015059221221844403,0.0038270008375316305,0.004112631377664705,1.195906539171703
0.5593220338983051,0.4203389830508475,0.0034981512877694057,0.0021771887456884355,0.004120341401689323,0.5567149774978408
0.5932203389830508,0.4203389830508475,0.004118186689744027,-0.00033988720166781947,0.004132188877755038,-0.08234658258367383
0.6271186440677967,0.4203389830508475,0.003115163286287083,-0.0027388304540186823,0.004147943412836187,-0.7211999937101372
0.6610169491525424,0.4203389830508475,0.0008728816539685866,-0.0040749425613370435,0.004167382782998347,-1.3597781517877114
0.6949152542372881,0.4203389830508475,-0.0017362417391386603,-0.003813659404435372,0.00419029037535176,-1.998023488653881
0.728813559322034,0.4203389830508475,-0.003688691416844087,-0.002042556097767066,0.004216453460104198,-2.6358867031752022
0.7627118644067796,0.4203389830508475,-0.004208875475874344,0.000557676903953462,0.004245660879135262,3.009859776860205
0.7966101694915255,0.4203389830508475,-0.003074841587174866,0.0029738962170847796,0.004277699089021014,2.372881607974038
0.8305084745762712,0.4203389830508475,-0.0007108592309127391,0.004253352878374775,0.004312346409340607,1.736394949574869
0.8644067796610169,0.4203389830508475,0.001971207803545251,0.003877025554196553,0.00434936631621789,1.1004250852291122
0.8983050847457628,0.4203389830508475,0.003922555215776436,0.001967867950244811,0.004388501303453793,0.4649907972025625
0.9322033898305084,0.4203389830508475,0.004365694090653896,-0.0007489391367072049,0.004429468898599705,-0.16989719375055168
0.9661016949152543,0.4203389830508475,0.003102021590491337,-0.0032211637769884957,0.004471960870362932,-0.8042380491638197
1.0,0.4203389830508475,0.0005977099243487701,-0.004475912795691645,0.004515645303641686,-1.4380425049930428
-1.0,0.43728813559322033,-0.0008792007765089289,-0.006204767737593388,0.006266748493668281,-1.7115568579536193
-0.9661016949152542,0.43728813559322033,-0.00433551487972639,-0.004442388011582006,0.0062073746880445735,-2.344019845199007
-0.9322033898305084,0.43728813559322033,-0.00606557081524708,-0.0010073504440382267,0.006148650602520942,-2.977017978945627
-0.8983050847457628,0.43728813559322033,-0.005433410609138052,0.0027531329248443987,0.006091115804953654,2.6725959409931117
-0.864406779661017,0.43728813559322033,-0.002720568647080938,0.005387338985751552,0.006035305718095676,2.0384303782037527
-0.8305084745762712,0.43728813559322033,0.0009950810537036195,0.005898382240391467,0.0059817304651083505,1.403665974368159
-0.7966101694915254,0.43728813559322033,0.004264790186947951,0.00412148769174445,0.005930859645269691,0.7683120911191037
-0.7627118644067796,0.43728813559322033,0.005831634984024625,0.0007765878438546884,0.005883116118701276,0.13238919731521057
-0.728813559322034,0.43728813559322033,0.005112651399872121,-0.002820159747804184,0.005838878774195378,-0.5040739724285676
-0.6949152542372881,0.43728813559322033,0.002415924075304264,-0.005271225741562786,0.0057984920415698514,-1.1410425746828716
-0.6610169491525424,0.43728813559322033,-0.0011881286685852172,-0.005638458215761619,0.005762279131038672,-1.7784767796019976
-0.6271186440677966,0.43728813559322033,-0.004288326430775398,-0.003801253850176014,0.005730556204275884,-2.4163317602995287
-0.5932203389830508,0.43728813559322033,-0.005682055795980577,-0.000495796267380705,0.005703645501552941,-3.0545566015836627
-0.5593220338983051,0.43728813559322033,-0.00483948843244264,0.0029771097448580545,0.005681886193921426,2.5900931044857156
-0.5254237288135593,0.43728813559322033,-0.0021042425134366743,0.005260386297520615,0.005665642113167486,1.9513171242984713
-0.4915254237288136,0.43728813559322033,0.0014451757563392327,0.0054675351928921475,0.005655304947765845,1.31238662142679
-0.4576271186440678,0.43728813559322033,0.004417616693479388,0.0035244491302569656,0.005651290022842293,0.6734083480154157
-0.423728813559322,0.43728813559322033,0.005650651778051657,0.00019511824983622353,0.005654019512543047,0.03451650607468445
-0.38983050847457623,0.43728813559322033,0.004661390346210582,-0.0032173037823722845,0.005663885908791968,-0.6041202254838508
-0.35593220338983056,0.43728813559322033,0.0018329046479060133,-0.005377393499959469,0.005681188282544578,-1.242292751271385
-0.3220338983050848,0.43728813559322033,-0.0017349848784309534,-0.005435869830243226,0.00570603657013628,-1.879749243352214
-0.288135593220339,0.43728813559322033,-0.004652169568731945,-0.00335924896332896,0.0057382257966955485,-2.5161996243308855
-0.2542372881355932,0.43728813559322033,-0.00577681798340884,5.625199153302691e-05,0.0057770918549030536,3.131855422147852
-0.22033898305084743,0.43728813559322033,-0.0046580250831779555,0.003491585839722383,0.005821371775764271,2.4983571828980797
-0.18644067796610164,0.43728813559322033,-0.0017118103738400833,0.00561391681867514,0.00586910187362514,1.8667631696740248
-0.15254237288135597,0.43728813559322033,0.0019373436339952068,0.005591478322208957,0.0059175949661931454,1.237259486786946
-0.11864406779661019,0.43728813559322033,0.004888358563800409,0.003415812889493368,0.005963541493467605,0.6098964893088652
-0.0847457627118644,0.43728813559322033,0.006002557361957353,-9.277818040630183e-05,0.006003274329426228,-0.015455211435010354
-0.05084745762711862,0.43728813559322033,0.004842344536279201,-0.0035987961648966038,0.006033210956406839,-0.6391303228218737
-0.016949152542372836,0.43728813559322033,0.0018407509461622266,-0.005763616348124225,0.006050424568091231,-1.2616610636254966
0.016949152542372836,0.43728813559322033,-0.0018634618323524446,-0.0057592374388009265,0.00605320624769391,-1.883725710620681
0.05084745762711873,0.43728813559322033,-0.004861862057543,-0.0035862347637149253,0.006041422220558144,-2.506058200810675
0.0847457627118644,0.43728813559322033,-0.006016066348740886,-7.370173835540613e-05,0.00601651778512198,-3.129342447674489
0.11864406779661008,0.43728813559322033,-0.004893767455329607,0.0034388143163953384,0.005981170772473291,2.5290618410699928
0.15254237288135597,0.43728813559322033,-0.0019335716610064694,0.005615158384861569,0.005938745916043934,1.9024276041798582
0.18644067796610164,0.43728813559322033,0.0017246223085152913,0.005634722593932528,0.005892743063939097,1.2737796216780493
0.22033898305084754,0.43728813559322033,0.004678399437698932,0.003506083466748006,0.005846370034001047,0.6431294441093278
0.2542372881355932,0.43728813559322033,0.005801955111138521,6.162050401560364e-05,0.005802282326652293,0.010620245434558325
0.2881355932203389,0.43728813559322033,0.004678143725711788,-0.003364682217002092,0.005762474740927432,-0.6235187002114225
0.3220338983050848,0.43728813559322033,0.001757178828366832,-0.005452120465993013,0.00572828901248536,-1.2590149996238815
0.35593220338983045,0.43728813559322033,-0.0018190975667355062,-0.005402459744202673,0.005700498859313407,-1.8955886728572195
0.38983050847457634,0.43728813559322033,-0.004659639468471479,-0.003247114809255957,0.005679436112910024,-2.5329774059703047
0.423728813559322,0.43728813559322033,-0.005662684942563711,0.00016629371703404594,0.005665126155617611,3.11223450639545
0.4576271186440677,0.43728813559322033,-0.004442389559901712,0.003503062109291232,0.0056574083415885466,2.4738703217076052
0.4915254237288136,0.43728813559322033,-0.0014785193811090698,0.005459361146424049,0.005656027200022968,1.8352748803206917
0.5254237288135593,0.43728813559322033,0.002069232107703693,0.005268937175359178,0.005660690812386225,1.1965790400165834
0.5593220338983051,0.43728813559322033,0.004811210983891861,0.003002271934349866,0.005671101118769315,0.5578913023219374
0.5932203389830508,0.43728813559322033,0.005668458587479591,-0.0004584226634127449,0.005686965280033066,-0.08069692004925769
0.6271186440677967,0.43728813559322033,0.004294662092520631,-0.0037599350018993213,0.00570799734648163,-0.7191076239446869
0.6610169491525424,0.43728813559322033,0.0012150380344669676,-0.0056037026478512435,0.005733916705946852,-1.357273863819007
0.6949152542372881,0.43728813559322033,-0.002373344106090615,-0.00525319701254495,0.005764446295918302,-1.9951381730595372
0.728813559322034,0.43728813559322033,-0.005064311027996514,-0.0028257317687016325,0.005799310839827157,-2.6326513198879153
0.7627118644067796,0.43728813559322033,-0.005790339451689622,0.0007462890290566772,0.00583823417487545,3.013414083314623
0.7966101694915255,0.43728813559322033,-0.0042429343041077774,0.004072211118873119,0.005880934866638841,2.3767231993577425
0.8305084745762712,0.43728813559322033,-0.0010009818280531028,0.005841984904164555,0.005927120062946175,1.740491239732898
0.8644067796610169,0.43728813559322033,0.0026856194254196654,0.005339077071470943,0.005976478534496564,1.1047420833871728
0.8983050847457628,0.43728813559322033,0.005376359038072272,0.0027275775093516764,0.006028674445994119,0.4694928134132202
0.9322033898305084,0.43728813559322033,0.006000474154126146,-0.001000688807250806,0.006083343501997313,-0.16524755146793385
0.9661016949152543,0.43728813559322033,0.004280135379841709,-0.004402405782474949,0.006140092470259841,-0.7994795617745708
1.0,0.43728813559322033,0.0008501112917637527,-0.006139929681584678,0.006198501891843606,-1.433214834794949
-1.0,0.4542372881355932,-0.001245985615468414,-0.008505864048668712,0.008596639073986362,-1.7162473358528043
-0.9661016949152542,0.4542372881355932,-0.005977429433165042,-0.006067483643156744,0.008517277756915199,-2.348718094845183
-0.9322033898305084,0.4542372881355932,-0.008331291360232423,-0.0013437323802204509,0.008438959203523638,-2.9816823721163135
-0.8983050847457628,0.4542372881355932,-0.0074419882356664534,0.0038138864568198283,0.008362351272537621,2.668009226519158
-0.864406779661017,0.4542372881355932,-0.003703014421910612,0.007414892253415761,0.008288120591463607,2.033965680516894
-0.8305084745762712,0.4542372881355932,0.0014017330721372073,0.008096463973935694,0.008216908450674243,1.39936659528481
-0.7966101694915254,0.4542372881355932,0.005883175367718719,0.005639109109906217,0.00814931309748003,0.7642192239755635
-0.7627118644067796,0.4542372881355932,0.008019172342705534,0.0010365114550853543,0.008085881588208952,0.1285414980472806
-0.728813559322034,0.4542372881355932,0.007014845015680167,-0.003902110507826741,0.00802711137391931,-0.5076402182765026
-0.6949152542372881,0.4542372881355932,0.0032985407607639687,-0.007259179409200981,0.007973459528046083,-1.144292855065939
-0.6610169491525424,0.4542372881355932,-0.001656623909589899,-0.007750282072861507,0.00792535645802404,-1.7813775464846509
-0.6271186440677966,0.4542372881355932,-0.005912369834977289,-0.0052143126369290915,0.00788322100040255,-2.418849600099188
-0.5932203389830508,0.4542372881355932,-0.007819185697692197,-0.0006657250941764243,0.00784747442659168,-3.0566575327106524
-0.5593220338983051,0.4542372881355932,-0.006652606844432699,0.004107623504399205,0.00781855157177374,2.588444094850485
-0.5254237288135593,0.4542372881355932,-0.002887396920643716,0.007242562061981272,0.007796907476621306,1.9501561869619872
-0.4915254237288136,0.4542372881355932,0.0019936840247133,0.007523335918970497,0.0077830173673241075,1.3117505955374535
-0.4576271186440678,0.4542372881355932,0.006079935078874261,0.004849929314785609,0.007777366194396569,0.6733334211365237
-0.423728813559322,0.4542372881355932,0.007775647276411968,0.00027253520717755936,0.007780421968397611,0.03503549959193835
-0.38983050847457623,0.4542372881355932,0.006418346821180252,-0.00441918695448696,0.007792585530853184,-0.6029824751525138
-0.35593220338983056,0.4542372881355932,0.002534104136325643,-0.007391794693490161,0.007814109838263859,-1.2405262668402568
-0.3220338983050848,0.4542372881355932,-0.0023675527954406727,-0.0074792040162789935,0.007844985593123978,-1.8773679169293744
-0.288135593220339,0.4542372881355932,-0.006378830470583553,-0.004634712044725856,0.007884797645467645,-2.513251505838064
-0.2542372881355932,0.4542372881355932,-0.007932409250471026,5.008919684744515e-05,0.007932567393007078,3.1352782376856445
-0.22033898305084743,0.4542372881355932,-0.00640849823750498,0.0047662421988987624,0.007986608439047688,2.5021114325995026
-0.18644067796610164,0.4542372881355932,-0.002376189262555338,0.007685482298337275,0.00804443370098473,1.870652748072513
-0.15254237288135597,0.4542372881355932,0.0026237608672452367,0.0076661977364826115,0.008102759333914503,1.2410418050369325
-0.11864406779661019,0.4542372881355932,0.006670950023667927,0.00469528563647215,0.008157651710286288,0.6132989171890081
-0.0847457627118644,0.4542372881355932,0.008204189738275861,-0.00010426474908034784,0.00820485224727001,-0.012708035726802631
-0.05084745762711862,0.4542372881355932,0.006622853741311973,-0.004903063541019088,0.008240280563553685,-0.6372802353402645
-0.016949152542372836,0.4542372881355932,0.0025193439403762025,-0.007867099843156693,0.008260650932711439,-1.260877548288893
0.016949152542372836,0.4542372881355932,-0.002546813456211259,-0.007861829817376405,0.008264056319878723,-1.88407521479519
0.05084745762711873,0.4542372881355932,-0.006646509338908244,-0.0048879325578904086,0.008250331574105344,-2.507492463870469
0.0847457627118644,0.4542372881355932,-0.008220658149559308,-8.124205294773867e-05,0.008221059583963799,-3.1317103051535806
0.11864406779661008,0.4542372881355932,-0.006677699577925577,0.004723135802035641,0.008179222668291792,2.5259842548491824
0.15254237288135597,0.4542372881355932,-0.0026194353203544242,0.007695018317620913,0.00812863754303522,1.8988992906465798
0.18644067796610164,0.4542372881355932,0.002391518344493802,0.007711016208674872,0.00807335933564814,1.27006012323434
0.22033898305084754,0.4542372881355932,0.0064331756114036735,0.004784313035470604,0.008017194002176382,0.6394529309518913
0.2542372881355932,0.4542372881355932,0.007963173197928051,5.717410250978376e-05,0.007963378444994151,0.007179690643742829
0.2881355932203389,0.4542372881355932,0.006410992104961525,-0.0046408327733513735,0.007914426612212106,-0.6265781598996266
0.3220338983050848,0.4542372881355932,0.002395464710379609,-0.007498791137345117,0.007872110244413486,-1.2615952918291113
0.35593220338983045,0.4542372881355932,-0.0025162289318174354,-0.007422636285009525,0.007837533888721318,-1.8976327722039843
0.38983050847457634,0.4542372881355932,-0.00641529322295719,-0.004456439476452405,0.007811263658576878,-2.534460433067832
0.423728813559322,0.4542372881355932,-0.007789901497607378,0.00023593359324463768,0.007793473551815456,3.111314800697272
0.4576271186440677,0.4542372881355932,-0.006110549373250125,0.004822147423079599,0.007784081154050279,2.4735019241044927
0.4915254237288136,0.4542372881355932,-0.0020357085486296615,0.007511905857939507,0.007782855447296304,1.8354377551270482
0.5254237288135593,0.4542372881355932,0.0028425436543074566,0.0072523176134603635,0.007789490688944369,1.197249076724021
0.5593220338983051,0.4542372881355932,0.006615648413350031,0.0041388577538791615,0.007803649622830746,0.5590424041006006
0.5932203389830508,0.4542372881355932,0.007800522434906828,-0.0006182480083001679,0.00782498439980885,-0.07909192220623716
0.6271186440677967,0.4542372881355932,0.005919151750997918,-0.0051609612188601136,0.007853144475553712,-0.7170766160943892
0.6610169491525424,0.4542372881355932,0.0016901655067063717,-0.007704569531981031,0.007887778591795692,-1.3548452722507462
0.6949152542372881,0.4542372881355932,-0.0032441204025535513,-0.007234455350546994,0.00792853463165308,-1.9923408333995187
0.728813559322034,0.4542372881355932,-0.006952082273268077,-0.003907698594662798,0.007975058384803075,-2.6295144100346177
0.7627118644067796,0.4542372881355932,-0.00796462986934751,0.0009986258311940645,0.008026990874943771,3.016860983950027
0.7966101694915255,0.4542372881355932,-0.005853180004102473,0.005575908346772906,0.00808396375870382,2.3804499050941708
0.8305084745762712,0.4542372881355932,-0.001407547224475717,0.008023060239017839,0.008145592967245433,1.744466654105807
0.8644067796610169,0.4542372881355932,0.003659164527748231,0.007351107519056861,0.008211471658470559,1.108933901125358
0.8983050847457628,0.4542372881355932,0.0073686639076061666,0.0037789510671374866,0.00828116410603469,0.47386735345439956
0.9322033898305084,0.4542372881355932,0.008246528888236532,-0.0013369579675930607,0.00835420225465186,-0.16072528643841927
0.9661016949152543,0.4542372881355932,0.005904389998800534,-0.006017019912296909,0.008430085994989213,-0.7948455830765006
1.0,0.4542372881355932,0.0012065684912734725,-0.008422300361171673,0.008508287189436334,-1.4285056879944413
-1.0,0.4711864406779661,-0.0017626604117389243,-0.011660394001734149,0.011792869031867917,-1.7208268648958336
-0.9661016949152542,0.4711864406779661,-0.008239688280376807,-0.008287649537921764,0.011686641853894288,-2.353292563491139
-0.9322033898305084,0.4711864406779661,-0.011442513056952326,-0.001792369652606339,0.011582041876547875,-2.9862139999409876
-0.8983050847457628,0.4711864406779661,-0.010193020100869211,0.00528112988162342,0.011479895104194095,2.6635603581107077
-0.864406779661017,0.4711864406779661,-0.005040794001916823,0.010203836471600058,0.011381031715486788,2.0296402072370743
-0.8305084745762712,0.4711864406779661,0.0019716057434449896,0.01111271279820751,0.011286257791802838,1.395204565430568
-0.7966101694915254,0.4711864406779661,0.008113506944341846,0.007715497744930605,0.011196334238844096,0.7602591631578742
-0.7627118644067796,0.4711864406779661,0.01102551600496676,0.0013833964754912925,0.011111966026954002,0.12481996772452242
-0.728813559322034,0.4711864406779661,0.00962382085723717,-0.0053969306890906885,0.011033802098780006,-0.511088586575424
-0.6949152542372881,0.4711864406779661,0.004503671855024146,-0.009994604323958082,0.0109624438776314,-1.1474349737853284
