Omega_Re,Omega_Im,Mismatch_Re,Mismatch_Im,Mismatch_Abs,Mismatch_Phase
-1.0,0.2,3.270041636447105e-05,-6.242219870763313e-05,7.046877409111784e-05,-1.0882443875726548
-0.9661016949152542,0.2,-9.346336705422395e-06,-6.791255559242357e-05,6.855267476112911e-05,-1.7075603070908478
-0.9322033898305084,0.2,-4.566187641151008e-05,-4.843676868352557e-05,6.65667147899112e-05,-2.326713849649788
-0.8983050847457628,0.2,-6.330173261717592e-05,-1.2532209520479564e-05,6.453034656502033e-05,-2.9461442202474077
-0.864406779661017,0.2,-5.694105328335386e-05,2.571842657333023e-05,6.247976483971048e-05,2.7173528492922725
-0.8305084745762712,0.2,-3.0410482483814168e-05,5.222906032254842e-05,6.043734099937529e-05,2.0980637070129196
-0.7966101694915254,0.2,5.2751228670921815e-06,5.814619473512326e-05,5.838498851107016e-05,1.4803222766320197
-0.7627118644067796,0.2,3.6468950681971e-05,4.282454120085877e-05,5.624878392381549e-05,0.8653799144464844
-0.728813559322034,0.2,5.216820351576978e-05,1.3539979708456133e-05,5.3896683650927705e-05,0.25394152233303
-0.6949152542372881,0.2,4.797442756079011e-05,-1.7773697119367404e-05,5.116102040691239e-05,-0.3548044585408292
-0.6610169491525424,0.2,2.730338658021787e-05,-3.9358018761882406e-05,4.790123755822504e-05,-0.9642985723164575
-0.6271186440677966,0.2,-4.6430789599095856e-07,-4.4096701471588626e-05,4.409914582502349e-05,-1.5813252489800869
-0.5932203389830508,0.2,-2.4008729141320334e-05,-3.191718207108866e-05,3.993902335235938e-05,-2.2157164509938143
-0.5593220338983051,0.2,-3.459560928414439e-05,-9.310010045319418e-06,3.5826421378434186e-05,-2.878710919516538
-0.5254237288135593,0.2,-2.9319055958653938e-05,1.3687440002611453e-05,3.2356653969960636e-05,2.704819473179073
-0.4915254237288136,0.2,-1.1866184560525111e-05,2.7708063467623206e-05,3.014204898725832e-05,1.9754228238102725
-0.4576271186440678,0.2,9.399542909695542e-06,2.7733158189162063e-05,2.9282750384079274e-05,1.244019081703739
-0.423728813559322,0.2,2.5149077521186738e-05,1.485535173781762e-05,2.920886124827432e-05,0.5335470586559714
-0.38983050847457623,0.2,2.8950455892253692e-05,-4.4982759276950255e-06,2.9297839215392777e-05,-0.1541458150595203
-0.35593220338983056,0.2,1.9755933013082128e-05,-2.1511472453406168e-05,2.9206854269692255e-05,-0.8279131111712854
-0.3220338983050848,0.2,2.093363668765019e-06,-2.8774652200708675e-05,2.885069809764495e-05,-1.4981739984873117
-0.288135593220339,0.2,-1.6046896170726896e-05,-2.3339533026957406e-05,2.8323782915255602e-05,-2.1731118127253035
-0.2542372881355932,0.2,-2.6691515941720268e-05,-7.814541901066587e-06,2.7811941471077356e-05,-2.856779709854077
-0.22033898305084743,0.2,-2.5256391890210855e-05,1.0885668059705654e-05,2.7502419901128782e-05,2.734645500632397
-0.18644067796610164,0.2,-1.242090355088122e-05,2.455689617112957e-05,2.751944757039886e-05,2.0390739886557867
-0.15254237288135597,0.2,6.239261671961926e-06,2.7198569314813215e-05,2.79050274858118e-05,1.345301016197346
-0.11864406779661019,0.2,2.266903136897651e-05,1.7523329441637295e-05,2.8652260956646923e-05,0.658063990269129
-0.0847457627118644,0.2,2.977389053178583e-05,-5.46370918850926e-07,2.9778903246757295e-05,-0.018348613226509707
-0.05084745762711862,0.2,2.4464571358400182e-05,-1.9560510986718513e-05,3.1322976260435254e-05,-0.6744630745689006
-0.016949152542372836,0.2,9.02878770274806e-06,-3.1572977696293034e-05,3.283857378133088e-05,-1.2922642718680757
0.016949152542372836,0.2,-1.0087491546107366e-05,-3.128364040307468e-05,3.286979833466695e-05,-1.8827224776477682
0.05084745762711873,0.2,-2.521640132339228e-05,-1.8779439767278485e-05,3.144096457927493e-05,-2.501472140274026
0.0847457627118644,0.2,-3.001463002755182e-05,4.901580012687225e-07,3.0018632056724755e-05,3.1252634689744805
0.11864406779661008,0.2,-2.2358706557451708e-05,1.8505774717219274e-05,2.902370508406372e-05,2.4502021713006035
0.15254237288135597,0.2,-5.510550318608552e-06,2.7846345319717707e-05,2.8386354335822716e-05,1.7661634998439162
0.18644067796610164,0.2,1.3310395087627617e-05,2.4708222462397754e-05,2.8065332256007202e-05,1.0766677409112562
0.22033898305084754,0.2,2.6011992389876373e-05,1.0545005360808292e-05,2.8068147180575737e-05,0.3851443997671426
0.2542372881355932,0.2,2.7078906299058466e-05,-8.486658527054674e-06,2.8377641538859745e-05,-0.30370893462544013
0.2881355932203389,0.2,1.5965818013270758e-05,-2.4089385494774827e-05,2.889992799902361e-05,-0.9854935008521658
0.3220338983050848,0.2,-2.5836970930791094e-06,-2.9347400225283564e-05,2.9460912929706697e-05,-1.6586082878348163
0.35593220338983045,0.2,-2.046759417116931e-05,-2.173884672708464e-05,2.985799504620768e-05,-2.3260837225368745
0.38983050847457634,0.2,-2.9642081805512846e-05,-4.350953815050522e-06,2.995970315048896e-05,-2.9958503873415556
0.423728813559322,0.2,-2.561789017158347e-05,1.5268055129723263e-05,2.9822639123450856e-05,2.6041254950185473
0.4576271186440677,0.2,-9.55593746147539e-06,2.8214866557786117e-05,2.9789169770930277e-05,1.897355158827517
0.4915254237288136,0.2,1.1968926461282645e-05,2.8058708618887406e-05,3.0504857481968644e-05,1.1675989451275999
0.5254237288135593,0.2,2.9510719932892354e-05,1.3787009155451576e-05,3.257244560069317e-05,0.4370539228863939
0.5593220338983051,0.2,3.4661537950388485e-05,-9.449233888935668e-06,3.5926455908898546e-05,-0.2661469747225205
0.5932203389830508,0.2,2.3782314640549682e-05,-3.215021889499883e-05,3.9990437165132905e-05,-0.9339038366361724
0.6271186440677967,0.2,-9.51242736614437e-08,-4.419925423323362e-05,4.419935659488111e-05,-1.57294849267293
0.6610169491525424,0.2,-2.80772733912907e-05,-3.911539152097271e-05,4.81492173864567e-05,-2.1933731138573505
0.6949152542372881,0.2,-4.87118345912491e-05,-1.707320171071235e-05,5.161721656482344e-05,-2.804477886830505
0.728813559322034,0.2,-5.256711178750255e-05,1.4646551660331137e-05,5.4569430244584174e-05,2.8698587337069705
0.7627118644067796,0.2,-3.628484209674496e-05,4.411258768636474e-05,5.7118387217890996e-05,2.2591372736848294
0.7966101694915255,0.2,-4.418564008262398e-06,5.9271657676959885e-05,5.9436126317836614e-05,1.6452063600127562
0.8305084745762712,0.2,3.182230069084763e-05,5.2830013067438625e-05,6.16738931961041e-05,1.028648699963024
0.8644067796610169,0.2,5.8599001144339356e-05,2.553318850524051e-05,6.392015840373388e-05,0.4109216246355602
0.8983050847457628,0.2,6.47843893332486e-05,-1.3569799484576901e-05,6.619030562955243e-05,-0.2064758526177046
0.9322033898305084,0.2,4.65570923057369e-05,-5.01582492433127e-05,6.843546457151573e-05,-0.8226155689286244
0.9661016949152543,0.2,9.376754725329748e-06,-6.994783390028923e-05,7.057352900713869e-05,-1.43753723507895
1.0,0.2,-3.3588195752103476e-05,-6.429751715539397e-05,7.254197134231882e-05,-2.0521928241205587
-1.0,0.2169491525423729,4.343629058240925e-05,-8.569704023984298e-05,9.607650100533826e-05,-1.1016768229842357
-0.9661016949152542,0.2169491525423729,-1.4058578493645614e-05,-9.238371487863453e-05,9.344728141598789e-05,-1.721813649117508
-0.9322033898305084,0.2169491525423729,-6.323682600739587e-05,-6.508027349571439e-05,9.074325408407307e-05,-2.34182913524744
-0.8983050847457628,0.2169491525423729,-8.656415208085562e-05,-1.5716238219223742e-05,8.797927352076106e-05,-2.9619929907850913
-0.864406779661017,0.2169491525423729,-7.704471625478816e-05,3.633424868109676e-05,8.518254474950017e-05,2.7009224845688404
-0.8305084745762712,0.2169491525423729,-4.022379215289557e-05,7.187427505184333e-05,8.236422080847589e-05,2.0810113225973548
-0.7966101694915254,0.2169491525423729,8.614005255875195e-06,7.902521256882993e-05,7.949330354248086e-05,1.4622217367415917
-0.7627118644067796,0.2169491525423729,5.074784756717845e-05,5.722086410477822e-05,7.64824902941783e-05,0.8452791950439643
-0.728813559322034,0.2169491525423729,7.125878908193025e-05,1.6709448060569497e-05,7.319167080967541e-05,0.23032825854110406
-0.6949152542372881,0.2169491525423729,6.440629095239588e-05,-2.600901705660462e-05,6.945962339730486e-05,-0.3838013927570916
-0.6610169491525424,0.2169491525423729,3.5194309164875886e-05,-5.485287803764661e-05,6.517267545993337e-05,-1.0003398125811551
-0.6271186440677966,0.2169491525423729,-3.266165728952419e-06,-6.026834652418448e-05,6.035678446809574e-05,-1.624937082404724
-0.5932203389830508,0.2169491525423729,-3.535510533330034e-05,-4.245624941554953e-05,5.52495845012803e-05,-2.2651855635333553
-0.5593220338983051,0.2169491525423729,-4.917725183456478e-05,-1.0621417601329792e-05,5.031119765879206e-05,-2.9288777520508567
-0.5254237288135593,0.2169491525423729,-4.097455392465043e-05,2.1249204789002938e-05,4.61567197002676e-05,2.663179833090335
-0.4915254237288136,0.2169491525423729,-1.6083441969976928e-05,4.023567044897665e-05,4.3331123711257115e-05,1.9510707255391462
-0.4576271186440678,0.2169491525423729,1.378024669853959e-05,3.957104970027881e-05,4.1901827805652426e-05,1.2356897469480335
-0.423728813559322,0.2169491525423729,3.5651531664405875e-05,2.1007116583272544e-05,4.1380317267528764e-05,0.532466170101685
-0.38983050847457623,0.2169491525423729,4.06722069378257e-05,-6.363965512941192e-06,4.1167079981985865e-05,-0.15521113867809955
-0.35593220338983056,0.2169491525423729,2.7520995518703047e-05,-3.0226875727445033e-05,4.0878713416433246e-05,-0.8322207119730293
-0.3220338983050848,0.2169491525423729,2.6250819982686956e-06,-4.0304617012620425e-05,4.0390013716655834e-05,-1.505757140248073
-0.288135593220339,0.2169491525423729,-2.281924884464129e-05,-3.2574365052179596e-05,3.9771942074612374e-05,-2.1818764430405975
-0.2542372881355932,0.2169491525423729,-3.769764566621576e-05,-1.075305252334345e-05,3.920128349104578e-05,-2.8637272208161524
-0.22033898305084743,0.2169491525423729,-3.5655063064844054e-05,1.5472493018266996e-05,3.8867487214358585e-05,2.73216627443341
-0.18644067796610164,0.2169491525423729,-1.7677604636648235e-05,3.4656220050691564e-05,3.8904386563620346e-05,2.042479041211695
-0.15254237288135597,0.2169491525423729,8.44177902611304e-06,3.845073663448975e-05,3.9366518526034456e-05,1.3546772777342277
-0.11864406779661019,0.2169491525423729,3.147710891566358e-05,2.5089583953152848e-05,4.0252895655230226e-05,0.6729542250912288
-0.0847457627118644,0.2169491525423729,4.154686525758557e-05,7.37461525535525e-08,4.1546930707658625e-05,0.0017750093694597132
-0.05084745762711862,0.2169491525423729,3.430224002657523e-05,-2.6171085071155948e-05,4.314590785511949e-05,-0.6517412428412473
-0.016949152542372836,0.2169491525423729,1.2753773432573525e-05,-4.262123384416511e-05,4.4488518869124246e-05,-1.280041331325674
0.016949152542372836,0.2169491525423729,-1.4137833492904792e-05,-4.223798921945677e-05,4.454128499691097e-05,-1.8937929509399187
0.05084745762711873,0.2169491525423729,-3.527984023289846e-05,-2.5139961586441736e-05,4.33207201628344e-05,-2.5224687817251756
0.0847457627118644,0.2169491525423729,-4.184549836724895e-05,1.4347457675577446e-06,4.1870087521056826e-05,3.10731933865806
0.11864406779661008,0.2169491525423729,-3.104400058699731e-05,2.6367355539151807e-05,4.073042364834337e-05,2.437473568097642
0.15254237288135597,0.2169491525423729,-7.455839411362256e-06,3.927320471666479e-05,3.997466885472704e-05,1.7584091085880889
0.18644067796610164,0.2169491525423729,1.8870484943214776e-05,3.4812182793588986e-05,3.959776853367306e-05,1.0740652280624687
0.22033898305084754,0.2169491525423729,3.666078722432873e-05,1.4974383534048939e-05,3.960107930514396e-05,0.38777623060554206
0.2542372881355932,0.2169491525423729,3.820541790248041e-05,-1.1683857480717605e-05,3.9952052296883214e-05,-0.29678470008417607
0.2881355932203389,0.2169491525423729,2.2700569895131675e-05,-3.3592924255058426e-05,4.0543808819224806e-05,-0.9765285040676739
0.3220338983050848,0.2169491525423729,-3.2833664751379023e-06,-4.106698670928716e-05,4.1198032632527825e-05,-1.6505781035019051
0.35593220338983045,0.2169491525423729,-2.8459813736123355e-05,-3.0508996938426235e-05,4.172241474416044e-05,-2.32145817919401
0.38983050847457634,0.2169491525423729,-4.156297849733556e-05,-6.132899862848525e-06,4.20130175338276e-05,-2.9950930015143054
0.423728813559322,0.2169491525423729,-3.622066716134574e-05,2.1593867521584315e-05,4.216908635662769e-05,2.6039901702884927
0.4576271186440677,0.2169491525423729,-1.3909758223030513e-05,4.02365690431885e-05,4.2573029751128116e-05,1.9036347610154463
0.4915254237288136,0.2169491525423729,1.6316053084054748e-05,4.069826373375975e-05,4.384703250146305e-05,1.189511806151045
0.5254237288135593,0.2169491525423729,4.133186034340828e-05,2.1337923204501486e-05,4.6514832538967706e-05,0.4765696283924974
0.5593220338983051,0.2169491525423729,4.936035547348482e-05,-1.0893780826786792e-05,5.054818644789197e-05,-0.21721693221501637
0.5932203389830508,0.2169491525423729,3.5129173559849376e-05,-4.2890987428340554e-05,5.5440920244672054e-05,-0.8845566116630368
0.6271186440677967,0.2169491525423729,2.566507545771477e-06,-6.055244448475431e-05,6.0606810624398934e-05,-1.5284368096650605
0.6610169491525424,0.2169491525423729,-3.621631216194395e-05,-5.468023961625141e-05,6.558620183470026e-05,-2.155789962863447
0.6949152542372881,0.2169491525423729,-6.541787200942542e-05,-2.5208291957930908e-05,7.01067469055429e-05,-2.773785484472792
0.728813559322034,0.2169491525423729,-7.185303324859743e-05,1.8086947351268625e-05,7.409450756642904e-05,2.8949944905830223
0.7627118644067796,0.2169491525423729,-5.058829038117101e-05,5.888734544410175e-05,7.763307656625912e-05,2.2805318821688862
0.7966101694915255,0.2169491525423729,-7.5664743575141045e-06,8.0526782434419e-05,8.088148257446306e-05,1.6644834638881765
0.8305084745762712,0.2169491525423729,4.201934974255747e-05,7.272671635014596e-05,8.399286293407286e-05,1.0468824511750205
0.8644067796610169,0.2169491525423729,7.919056318618701e-05,3.6181450491861396e-05,8.706458899828618e-05,0.42856963211467014
0.8983050847457628,0.2169491525423729,8.850845694321276e-05,-1.6973897612322173e-05,9.012136345296904e-05,-0.18947659430606156
0.9322033898305084,0.2169491525423729,6.443446428493817e-05,-6.723230276626805e-05,9.312348105038871e-05,-0.8066443559578779
0.9661016949152543,0.2169491525423729,1.4138638659126527e-05,-9.49520121292014e-05,9.599888390245669e-05,-1.4229794203644743
1.0,0.2169491525423729,-4.455032328754154e-05,-8.806481689473669e-05,9.869216422658876e-05,-2.0391377108312168
-1.0,0.23389830508474577,5.765267696209305e-05,-0.0001176714872006505,0.0001310359113407783,-1.115224202295855
-0.9661016949152542,0.23389830508474577,-2.0969166384962728e-05,-0.0001256977094158419,0.00012743476798452485,-1.7360963143720758
-0.9322033898305084,0.23389830508474577,-8.756581470124151e-05,-8.744260376882533e-05,0.0001237496701335561,-2.3568985186792974
-0.8983050847457628,0.23389830508474577,-0.00011838378279677798,-1.9565272123836756e-05,0.00011998966581566301,-2.9778033308597314
-0.864406779661017,0.23389830508474577,-0.00010424112115794442,5.1280745786600794e-05,0.00011617196834303542,2.6844109625766706
-0.8305084745762712,0.23389830508474577,-5.313439938363039e-05,9.892909221879808e-05,0.00011229527899735855,2.0636783273398573
-0.7966101694915254,0.23389830508474577,1.3735312391413085e-05,0.00010744067279084506,0.00010831508194263225,1.443645122604
-0.7627118644067796,0.23389830508474577,7.068657109663946e-05,7.646499788622552e-05,0.00010413206631552425,0.8246465345055576
-0.728813559322034,0.23389830508474577,9.748661950417818e-05,2.0417483111057985e-05,9.960178009926707e-05,0.20645466181320132
-0.6949152542372881,0.23389830508474577,8.665077403895934e-05,-3.789442827181493e-05,9.457454380327996e-05,-0.4122623699965027
-0.6610169491525424,0.23389830508474577,4.546512156808011e-05,-7.647458612072266e-05,8.896875632229626e-05,-1.034421289342185
-0.6271186440677966,0.23389830508474577,-7.765172891138939e-06,-8.249504599168973e-05,8.285970385658088e-05,-1.6646487531035197
-0.5932203389830508,0.23389830508474577,-5.149375999321954e-05,-5.663189902865726e-05,7.654266330505705e-05,-2.308710139683791
-0.5593220338983051,0.23389830508474577,-6.951644767025712e-05,-1.1910862277960307e-05,7.052946289952969e-05,-2.9719016236738187
-0.5254237288135593,0.23389830508474577,-5.697784315538358e-05,3.2203012257446695e-05,6.544851876927968e-05,2.6271660229489546
-0.4915254237288136,0.23389830508474577,-2.1577132378921264e-05,5.791189239361503e-05,6.18009702375872e-05,1.9274485117258913
-0.4576271186440678,0.23389830508474577,2.027365180512299e-05,5.608657326600091e-05,5.963828181829063e-05,1.223939408855891
-0.423728813559322,0.23389830508474577,5.057565207216891e-05,2.944906928156712e-05,5.8524732071796986e-05,0.5272863886987817
-0.38983050847457623,0.23389830508474577,5.715133757026844e-05,-9.163972091125569e-06,5.78813767161572e-05,-0.15899232969172117
-0.35593220338983056,0.23389830508474577,3.835380909376054e-05,-4.2562275467425844e-05,5.729364681154158e-05,-0.8373615995418061
-0.3220338983050848,0.23389830508474577,3.291046559197642e-06,-5.6501027791752095e-05,5.6596794334830915e-05,-1.5126145145944512
-0.288135593220339,0.23389830508474577,-3.236535133695918e-05,-4.549707591590211e-05,5.5834576062348364e-05,-2.18911388082232
-0.2542372881355932,0.23389830508474577,-5.3137546298497836e-05,-1.48409718316175e-05,5.517112715480684e-05,-2.8692391983435717
-0.22033898305084743,0.23389830508474577,-5.022595325906443e-05,2.1905938855975928e-05,5.479522367819553e-05,2.730317739346804
-0.18644067796610164,0.23389830508474577,-2.506472920278912e-05,4.878531798772849e-05,5.484749676305141e-05,2.045403960215462
-0.15254237288135597,0.23389830508474577,1.1452658119674817e-05,5.419310569179735e-05,5.539003594987524e-05,1.3625301356744386
-0.11864406779661019,0.23389830508474577,4.367990537063458e-05,3.570559247129387e-05,5.6416517678014384e-05,0.6852834918700204
-0.0847457627118644,0.23389830508474577,5.785303911168359e-05,1.0172764613617996e-06,5.786198221506788e-05,0.017581991412649076
-0.05084745762711862,0.23389830508474577,4.788113182765595e-05,-3.5338759176062624e-05,5.9509920897285e-05,-0.6358103530238103
-0.016949152542372836,0.23389830508474577,1.7870221846333543e-05,-5.807747098122511e-05,6.076460700450732e-05,-1.2722937652983026
0.016949152542372836,0.23389830508474577,-1.968493654973781e-05,-5.7569670181176346e-05,6.084212070380706e-05,-1.9002659908266586
0.05084745762711873,0.23389830508474577,-4.9154952430338384e-05,-3.397522275677269e-05,5.975387108632506e-05,-2.5368065446328156
0.0847457627118644,0.23389830508474577,-5.8223086670520446e-05,2.8097577921612285e-06,5.829084456665168e-05,3.0933715818771166
0.11864406779661008,0.23389830508474577,-4.307751239743793e-05,3.7374988466002204e-05,5.703123562737543e-05,2.4269567736187514
0.15254237288135597,0.23389830508474577,-1.0119762256664309e-05,5.5244780552223796e-05,5.616400418768922e-05,1.751968158976045
0.18644067796610164,0.23389830508474577,2.6663124252208696e-05,4.894239994953433e-05,5.5734017509137964e-05,1.0719651566205106
0.22033898305084754,0.23389830508474577,5.1562208600102956e-05,2.119269111663927e-05,5.574756956572916e-05,0.3899633642972761
0.2542372881355932,0.23389830508474577,5.379872578321084e-05,-1.6120120412312115e-05,5.616191928704499e-05,-0.29112427292753684
0.2881355932203389,0.23389830508474577,3.218617253318088e-05,-4.687358827355002e-05,5.686020559208323e-05,-0.969080263223558
0.3220338983050848,0.23389830508474577,-4.184873117994194e-06,-5.751098358332583e-05,5.766304185295191e-05,-1.6434348035631035
0.35593220338983045,0.23389830508474577,-3.960535113996381e-05,-4.290735426686862e-05,5.839199336469343e-05,-2.316197714684873
0.38983050847457634,0.23389830508474577,-5.831241678495379e-05,-8.807833419905763e-06,5.897385760534043e-05,-2.9916802808826444
0.423728813559322,0.23389830508474577,-5.127570368022317e-05,3.028225000394599e-05,5.955008357008022e-05,2.6081306597541856
0.4576271186440677,0.23389830508474577,-2.0355930048399525e-05,5.700950625170329e-05,6.053468172211969e-05,1.9137485818420017
0.4915254237288136,0.23389830508474577,2.2001673690934088e-05,5.8531182691653756e-05,6.252977684660397e-05,1.2112398112394356
0.5254237288135593,0.23389830508474577,5.7578968466821736e-05,3.227775054268425e-05,6.600902051840343e-05,0.5109314970773027
0.5593220338983051,0.23389830508474577,6.987835588105436e-05,-1.2368000829928737e-05,7.096444225926391e-05,-0.1751790791210292
0.5932203389830508,0.23389830508474577,5.128576095844937e-05,-5.734991791105516e-05,7.693661262033815e-05,-0.8411613357742385
0.6271186440677967,0.23389830508474577,6.886509586064782e-06,-8.304072372727154e-05,8.332578119302573e-05,-1.4880563492679033
0.6610169491525424,0.23389830508474577,-4.682136303678613e-05,-7.641719714674547e-05,8.962046672712147e-05,-2.120506963488963
0.6949152542372881,0.23389830508474577,-8.804222009158139e-05,-3.6981045782363175e-05,9.54936137435991e-05,-2.7439326720353954
0.728813559322034,0.23389830508474577,-9.836393379420179e-05,2.213976294874025e-05,0.00010082476171504955,2.920201982919123
0.7627118644067796,0.23389830508474577,-7.058708902969989e-05,7.862709023719931e-05,0.00010566341115473918,2.3023642582023562
0.7966101694915255,0.23389830508474577,-1.2461394983857462e-05,0.00010944373575270751,0.00011015088588137717,1.684169271883329
0.8305084745762712,0.23389830508474577,5.541594875480849e-05,0.00010012556800385163,0.00011443800393439882,1.065297112724382
0.8644067796610169,0.23389830508474577,0.0001070172092153275,5.118677315415283e-05,0.0001186287014772221,0.44614075572999967
0.8983050847457628,0.23389830508474577,0.00012093059012274166,-2.109676785678879e-05,0.00012275700078381591,-0.17271538182875515
0.9322033898305084,0.23389830508474577,8.916188787870129e-05,-9.014821419501916e-05,0.00012679330728648558,-0.7908987813615175
0.9661016949152543,0.23389830508474577,2.1118909062823715e-05,-0.00012895804466326498,0.0001306758799602148,-1.4084714976720827
1.0,0.23389830508474577,-5.9057521895070604e-05,-0.0001206809975743089,0.00013435659294547885,-2.0259029081873896
-1.0,0.2508474576271187,7.6462070033994e-05,-0.00016159704585554956,0.00017877374914434163,-1.1288462307032117
-0.9661016949152542,0.2508474576271187,-3.105550312486514e-05,-0.00017105250619681316,0.000173848796805009,-1.7503954247166478
-0.9322033898305084,0.2508474576271187,-0.00012124222995548096,-0.00011748392262647965,0.0001688257989771776,-2.371936363626822
-0.8983050847457628,0.2508474576271187,-0.00016191685673924548,-2.4140737277026972e-05,0.00016370657803703486,-2.9935894584139
-0.864406779661017,0.2508474576271187,-0.00014104105049172084,7.231035613939494e-05,0.00015849720984551836,2.6678445472960077
-0.8305084745762712,0.2508474576271187,-7.010705783999389e-05,0.000136198467896611,0.00015318296973346752,2.046167780990749
-0.7966101694915254,0.2508474576271187,2.148861250596815e-05,0.0001461343213248009,0.0001477057897866289,1.4247956493250369
-0.7627118644067796,0.2508474576271187,9.851595808124921e-05,0.00010220669159343836,0.00014195633766458853,0.803783321569099
-0.728813559322034,0.2508474576271187,0.00013353085395543434,2.4667031580970897e-05,0.00013579010054154959,0.18266979733535263
-0.6949152542372881,0.2508474576271187,0.0001167854786858168,-5.496749153204911e-05,0.00012907468054270467,-0.4399100138599634
-0.6610169491525424,0.2508474576271187,5.8834570641711e-05,-0.00010660958797230058,0.00012176662494385799,-1.0665189996875735
-0.6271186440677966,0.2508474576271187,-1.4788997822456363e-05,-0.00011303299372286513,0.00011399636891825059,-1.7008952023828041
-0.5932203389830508,0.2508474576271187,-7.437344044408314e-05,-7.569829744103599e-05,0.00010612087861943633,-2.3473665616359773
-0.5593220338983051,0.2508474576271187,-9.784284853124676e-05,-1.3000622846072773e-05,9.870278214465046e-05,-3.0094939429407814
-0.5254237288135593,0.2508474576271187,-7.893649294169504e-05,4.79989592212686e-05,9.238436017129348e-05,2.595260024848054
-0.4915254237288136,0.2508474576271187,-2.8725673332674302e-05,8.279974464923845e-05,8.764109779318495e-05,1.9047331123043638
-0.4576271186440678,0.2508474576271187,2.981659221346692e-05,7.908444497242499e-05,8.451851044487648e-05,1.2102539399160552
-0.423728813559322,0.2508474576271187,7.172335072347914e-05,4.100429972634724e-05,8.2617138869918e-05,0.5193513374244976
-0.38983050847457623,0.2508474576271187,8.027130772837443e-05,-1.3350303410206867e-05,8.137391133261302e-05,-0.1648062637937742
-0.35593220338983056,0.2508474576271187,5.34339736321412e-05,-6.000582642992649e-05,8.03485453736334e-05,-0.8432659969547316
-0.3220338983050848,0.2508474576271187,4.0992436703477365e-06,-7.92315560298652e-05,7.933752749854607e-05,-1.5191049028117787
-0.288135593220339,0.2508474576271187,-4.581805077159724e-05,-6.356153221050671e-05,7.83540819195525e-05,-2.1953760579708033
-0.2542372881355932,0.2508474576271187,-7.478205604971094e-05,-2.0517452895664073e-05,7.754561096766149e-05,-2.8738184587726834
-0.22033898305084743,0.2508474576271187,-7.062114848702807e-05,3.092731661893997e-05,7.709633925728918e-05,2.7288190095827147
-0.18644067796610164,0.2508474576271187,-3.542228435137251e-05,6.853680583566937e-05,7.714941336669861e-05,2.047821791428746
-0.15254237288135597,0.2508474576271187,1.5588441515938986e-05,7.618950826011578e-05,7.776786404302295e-05,1.368980769815579
-0.11864406779661019,0.2508474576271187,6.060895989379481e-05,5.056095894143466e-05,7.892944056868179e-05,0.6952589180930883
-0.0847457627118644,0.2508474576271187,8.04783101820259e-05,2.3984688802792547e-06,8.051404264303241e-05,0.029793855597046826
-0.05084745762711862,0.2508474576271187,6.670199805081277e-05,-4.8066690839077097e-05,8.2216563490516e-05,-0.6244302411508653
-0.016949152542372836,0.2508474576271187,2.4958497445744197e-05,-7.96170821099926e-05,8.343743978849377e-05,-1.2670173575933918
0.016949152542372836,0.2508474576271187,-2.734397100073026e-05,-7.894332487064664e-05,8.354484599136702e-05,-1.904237842646826
0.05084745762711873,0.2508474576271187,-6.836592890659547e-05,-4.626016495615328e-05,8.254636937523162e-05,-2.546706716717791
0.0847457627118644,0.2508474576271187,-8.093738335239311e-05,4.765444610420928e-06,8.107755229573246e-05,3.082782383874482
0.11864406779661008,0.2508474576271187,-5.977439683118506e-05,5.275002840323177e-05,7.972166589499837e-05,2.418538867712031
0.15254237288135597,0.2508474576271187,-1.3787941188485095e-05,7.75418858850069e-05,7.8758182995931e-05,1.7467699180767777
0.18644067796610164,0.2508474576271187,3.75629620345523e-05,6.868835881823187e-05,7.828835643920102e-05,1.070366543430296
0.22033898305084754,0.2508474576271187,7.239480834796045e-05,2.991963487665078e-05,7.833385492167497e-05,0.39190561292527876
0.2542372881355932,0.2508474576271187,7.563914491428906e-05,-2.2266710129951194e-05,7.884850425579481e-05,-0.28629360308994606
0.2881355932203389,0.2508474576271187,4.554529836596964e-05,-6.541639291964047e-05,7.9709965913065e-05,-0.9626004852753395
0.3220338983050848,0.2508474576271187,-5.3216917676578885e-06,-8.056631808017818e-05,8.074188511712123e-05,-1.6367540675818382
0.35593220338983045,0.2508474576271187,-5.511492293903543e-05,-6.042290221011646e-05,8.178375047690776e-05,-2.3102852859088436
0.38983050847457634,0.2508474576271187,-8.179907769415416e-05,-1.281036913762897e-05,8.279610298230579e-05,-2.9862467111523596
0.423728813559322,0.2508474576271187,-7.25949863770214e-05,4.218504899238807e-05,8.396195808561223e-05,2.6151850915570747
0.4576271186440677,0.2508474576271187,-2.982257153071998e-05,8.036750213570793e-05,8.572234931590436e-05,1.9261236634069951
0.4915254237288136,0.2508474576271187,2.9428375214666368e-05,8.363874462792471e-05,8.866492469240808e-05,1.2324734699713864
0.5254237288135593,0.2508474576271187,7.989007839250819e-05,4.8056690028388814e-05,9.323019941009323e-05,0.5415475201799503
0.5593220338983051,0.2508474576271187,9.847022109965517e-05,-1.3712914236621433e-05,9.942046298562439e-05,-0.13836960735141557
0.5932203389830508,0.2508474576271187,7.421033645883492e-05,-7.681241957114358e-05,0.00010680506466318386,-0.8026262006700083
0.6271186440677967,0.2508474576271187,1.3681856631397649e-05,-0.00011395274693615915,0.00011477117118500816,-1.4513022852692694
0.6610169491525424,0.2508474576271187,-6.06395319925728e-05,-0.00010673404792774832,0.0001227571172165636,-2.0874573733556088
0.6949152542372881,0.2508474576271187,-0.00011869942712938768,-5.39303051262218e-05,0.00013037650022857726,-2.7151326026540037
0.728813559322034,0.2508474576271187,-0.00013481179828517088,2.6828863332314704e-05,0.00013745547957278977,2.9451494307183266
0.7627118644067796,0.2508474576271187,-9.852870128890132e-05,0.00010501904418386844,0.00014400314100383661,2.3243191943319657
0.7966101694915255,0.2508474576271187,-1.9946135095128445e-05,0.00014880657474771738,0.00015013742036341612,1.7040427899926154
0.8305084745762712,0.2508474576271187,7.300655781211448e-05,0.00013786468604261374,0.0001560020164651793,1.083787353262988
0.8644067796610169,0.2508474576271187,0.0001446341457283668,7.231400993320164e-05,0.00016170452109694902,0.4636306671816424
0.8983050847457628,0.2508474576271187,0.0001652526327131031,-2.6013390398859897e-05,0.0001672875640884739,-0.15613464419184936
0.9322033898305084,0.2508474576271187,0.00012336505192819672,-0.0001209025835911282,0.00017273207795964366,-0.775317479073075
0.9661016949152543,0.2508474576271187,3.130325222691973e-05,-0.00017521264453866935,0.00017798697819283369,-1.3940029586915366
1.0,0.2508474576271187,-7.824131236464909e-05,-0.00016544386821118815,0.00018301195723018643,-2.0125442176858983
-1.0,0.2677966101694915,0.0001013264601095894,-0.00022194054198487704,0.00024397675236563255,-1.1425106305316277
-0.9661016949152542,0.2677966101694915,-4.571499363872393e-05,-0.00023280436311869318,0.000237250357492858,-1.764695772728856
-0.9322033898305084,0.2677966101694915,-0.00016785336936512912,-0.00015783595938255893,0.000230406040896152,-2.3869423593265444
-0.8983050847457628,0.2677966101694915,-0.000221485828048433,-2.94626287944064e-05,0.00022343683340438078,-3.0093464035237587
-0.864406779661017,0.2677966101694915,-0.000190847075388982,0.00010187676593459132,0.00021633650090037808,2.6512614854594685
-0.8305084745762712,0.2677966101694915,-9.24029895856096e-05,0.00018754883369290237,0.00020907624806258175,2.0285769428630576
-0.7966101694915254,0.2677966101694915,3.310153309236201e-05,0.00019884874625308296,0.00020158505743106978,1.4058430081031068
-0.7627118644067796,0.2677966101694915,0.00013733819669759049,0.00013665961545951343,0.0001937463051768682,0.7829215748240691
-0.728813559322034,0.2677966101694915,0.0001830751469426136,2.93979115221481e-05,0.00018542045903816444,0.15921915967054978
-0.6949152542372881,0.2677966101694915,0.0001576331273860937,-7.93958232457246e-05,0.00017649900735807776,-0.4665830716212376
-0.6610169491525424,0.2677966101694915,7.62348741615674e-05,-0.00014856584944611295,0.00016698373471711283,-1.0966931577592802
-0.6271186440677966,0.2677966101694915,-2.553594079332175e-05,-0.00015497714567996212,0.00015706686460010665,-1.7341012726739329
-0.5932203389830508,0.2677966101694915,-0.00010672011476923533,-0.00010134267851830484,0.00014717174112452173,-2.3820339942696798
-0.5593220338983051,0.2677966101694915,-0.00013724198271980207,-1.3592716337407062e-05,0.0001379134647461649,-3.042872635335355
-0.5254237288135593,0.2677966101694915,-0.00010904881767175405,7.0683059973336e-05,0.0001299528360706363,2.566499243482491
-0.4915254237288136,0.2677966101694915,-3.8010184794735175e-05,0.0001177724413782939,0.00012375428112325484,1.8829851384783254
-0.4576271186440678,0.2677966101694915,4.374814747002281e-05,0.00011105834097398642,0.0001193643812322298,1.195541935654327
-0.423728813559322,0.2677966101694915,0.00010161818054678632,5.6789453330814674e-05,0.00011641003662593718,0.5096134343022973
-0.38983050847457623,0.2677966101694915,0.0001126501326625971,-1.9580306831038254e-05,0.00011433914817112434,-0.17209585480381903
-0.35593220338983056,0.2677966101694915,7.43874295063376e-05,-8.464724202549047e-05,0.00011268826580918844,-0.8498219415805404
-0.3220338983050848,0.2677966101694915,5.041479842527408e-06,-0.00011110110402490946,0.00011121542984027154,-1.5254500286022934
-0.288135593220339,0.2677966101694915,-6.476917747488111e-05,-8.878610956041555e-05,0.00010990004368355256,-2.201045699444937
-0.2542372881355932,0.2677966101694915,-0.00010510293830373061,-2.8383724464728417e-05,0.00010886810118013185,-2.877828222652455
-0.22033898305084743,0.2677966101694915,-9.91395401980901e-05,4.357745755757585e-05,0.00010829424378918322,2.727457165891807
-0.18644067796610164,0.2677966101694915,-4.9914536639812086e-05,9.613218531023488e-05,0.00010831831802833942,2.049707861532565
-0.15254237288135597,0.2677966101694915,2.1295293182092832e-05,0.00010689589250886815,0.00010899642813862655,1.3741554369160023
-0.11864406779661019,0.2677966101694915,8.412148565263202e-05,7.131223411341695e-05,0.00011028081919650744,0.7031742308019582
-0.0847457627118644,0.2677966101694915,0.0001119077213601614,4.382547561655143e-06,0.00011199350348637948,0.039142153024271625
-0.05084745762711862,0.2677966101694915,9.283935147165142e-05,-6.574210380638276e-05,0.00011375926069804616,-0.6161599031692865
-0.016949152542372836,0.2677966101694915,3.480886626068283e-05,-0.00010958755261199252,0.00011498299377664652,-1.2632399732132762
0.016949152542372836,0.2677966101694915,-3.795201017067228e-05,-0.00010869218685507603,0.00011512752303134806,-1.9067312001004906
0.05084745762711873,0.2677966101694915,-9.501849565955826e-05,-6.334426423055669e-05,0.00011419724308544438,-2.553600247221271
0.0847457627118644,0.2677966101694915,-0.00011247860966271005,7.515334899209288e-06,0.0001127294011795661,3.074876136333991
0.11864406779661008,0.2677966101694915,-8.296957892444132e-05,7.419156213158466e-05,0.00011130291513893014,2.4119901260587437
0.15254237288135597,0.2677966101694915,-1.8864810370453956e-05,0.0001086430422390751,0.00011026872492812566,1.7427223921177584
0.18644067796610164,0.2677966101694915,5.278084638063523e-05,9.626699003353057e-05,0.00010978684399677444,1.0692779581378484
0.22033898305084754,0.2677966101694915,0.00010149288410674017,4.216659401604475e-05,0.00010990371774975645,0.39376554188000223
0.2542372881355932,0.2677966101694915,0.00010621081248637333,-3.076835590194876e-05,0.00011057770305954334,-0.2819727118008815
0.2881355932203389,0.2677966101694915,6.435554748964148e-05,-9.128171875085801e-05,0.00011168701209541888,-0.9567083686167077
0.3220338983050848,0.2677966101694915,-6.7205833584190895e-06,-0.00011286363550594928,0.00011306355053816962,-1.6302721451629658
0.35593220338983045,0.2677966101694915,-7.665700130118832e-05,-8.514606476412402e-05,0.00011456940339072553,-2.3037771444873933
0.38983050847457634,0.2677966101694915,-0.00011467540555636965,-1.8773866475585812e-05,0.00011620200816664479,-2.979319082978377
0.423728813559322,0.2677966101694915,-0.00010271578988189807,5.8458291124338986e-05,0.00011818589294937111,2.62418357134921
0.4576271186440677,0.2677966101694915,-4.36367844222799e-05,0.00011284407973398998,0.00012098741788189226,1.939784706995856
0.4915254237288136,0.2677966101694915,3.9110479295505245e-05,0.00011891929033401432,0.00012518557107058997,1.2530568127629038
0.5254237288135593,0.2677966101694915,0.00011050551507819547,7.072121900028803e-05,0.00013119816949784012,0.5692983570963854
0.5593220338983051,0.2677966101694915,0.00013825633077845385,-1.4655734423023093e-05,0.000139030944583569,-0.10560967930024164
0.5932203389830508,0.2677966101694915,0.0001066427631257233,-0.00010300807512352631,0.00014826780657898453,-0.7680630363708203
0.6271186440677967,0.2677966101694915,2.413722523493259e-05,-0.0001564277759396881,0.0001582790407081087,-1.4177010572595166
0.6610169491525424,0.2677966101694915,-7.864093887260221e-05,-0.00014896839493037448,0.0001684517140159054,-2.0565167563612037
0.6949152542372881,0.2677966101694915,-0.00016026219408287815,-7.82265389316536e-05,0.00017833497202030685,-2.687497374384877
0.728813559322034,0.2677966101694915,-0.00018492514237408687,3.2121099006839585e-05,0.00018769409496167825,2.969610725853868
0.7627118644067796,0.2677966101694915,-0.00013753869542477173,0.0001403264645214703,0.00019649022719780133,2.346162014129416
0.7966101694915255,0.2677966101694915,-3.1240429315968185e-05,0.00020241445967902964,0.00020481107858463007,1.7239269932689876
0.8305084745762712,0.2677966101694915,9.609113097001036e-05,0.00018985532008964712,0.00021278756546715328,1.1022581868207824
0.8644067796610169,0.2677966101694915,0.00019550261961139004,0.00010203427141249426,0.0002205272473360025,0.48101956666892043
0.8983050847457628,0.2677966101694915,0.0002258576267836799,-3.1760897352884986e-05,0.00022807985920948067,-0.13970743538759142
0.9322033898305084,0.2677966101694915,0.00017067439492412135,-0.0001621749017275652,0.0002354367172576537,-0.7598681514742499
0.9661016949152543,0.2677966101694915,4.610045745098844e-05,-0.00023813645510334242,0.00024255767031033387,-1.3795732907768903
1.0,0.2677966101694915,-0.00010358849611600991,-0.00022688159495944492,0.00024941097541791987,-1.999104670211192
-1.0,0.2847457627118644,0.00013416494457053825,-0.00030483813899910296,0.00033305633658594757,-1.1561900668807565
-0.9661016949152542,0.2847457627118644,-6.694082743724954e-05,-0.0003168878032307459,0.0003238810803588125,-1.7789802239346346
-0.9322033898305084,0.2847457627118644,-0.0002323602782868772,-0.0002120319750963235,0.0003145613730081985,-2.4019066773305404
-0.8983050847457628,0.2847457627118644,-0.0003030105950998935,-3.547210690117449e-05,0.0003050798110508133,-3.025057501752965
-0.864406779661017,0.2847457627118644,-0.00025827101506094844,0.00014341252162164767,0.0002954167709837954,2.6347053543041774
-0.8305084745762712,0.2847457627118644,-0.00012166911544392446,0.0002583089965361848,0.00028552917774622916,2.0109936402703354
-0.7966101694915254,0.2847457627118644,5.0341195920842305e-05,0.000270693195263588,0.0002753344184237626,1.386925457746021
-0.7627118644067796,0.2847457627118644,0.000191464734384233,0.00018279446649612706,0.00026471222392331756,0.7622358275156399
-0.728813559322034,0.2847457627118644,0.0002511837461151471,3.444209245459626e-05,0.00025353408458250666,0.13626932376784226
-0.6949152542372881,0.2847457627118644,0.00021302930942058225,-0.00011423034399801076,0.00024172310225155158,-0.4922011898405677
-0.6610169491525424,0.2847457627118644,9.887313883793347e-05,-0.00020692624432173384,0.00022933462052809024,-1.1250510527391158
-0.6271186440677966,0.2847457627118644,-4.173335874763038e-05,-0.00021257252781985383,0.00021663045219008558,-1.7646560076335984
-0.5932203389830508,0.2847457627118644,-0.00015234246344628512,-0.000135835119334229,0.000204106359071507,-2.413413808667077
-0.5593220338983051,0.2847457627118644,-0.00019198062290123468,-1.3205951680301306e-05,0.00019243429197866093,-3.072912902504679
-0.5254237288135593,0.2847457627118644,-0.0001503198750179474,0.00010313848842609543,0.00018230088485860716,2.5402383989952804
-0.4915254237288136,0.2847457627118644,-5.0040558162613394e-05,0.00016682877534059847,0.0001741720349047739,1.8622087174138913
-0.4576271186440678,0.2847457627118644,6.397647974515532e-05,0.00015545103764028564,0.00016810120482621107,1.1803695475424043
-0.423728813559322,0.2847457627118644,0.00014379051162870265,7.831776073913265e-05,0.00016373571046548183,0.4987385621194781
-0.38983050847457623,0.2847457627118644,0.00015792419602451028,-2.880661265868795e-05,0.00016052997421932028,-0.18042423684006864
-0.35593220338983056,0.2847457627118644,0.00010345380489174863,-0.00011941791961774691,0.00015799787743008022,-0.8569051970816977
-0.3220338983050848,0.2847457627118644,6.079640102605327e-06,-0.00015573983153298077,0.00015585845228828122,-1.531778982228454
-0.288135593220339,0.2847457627118644,-9.14538983461142e-05,-0.00012397058738506707,0.00015405363371014634,-2.2063830070004955
-0.2542372881355932,0.2847457627118644,-0.000147548262714076,-3.926152737199597e-05,0.00015268253784085455,-2.8815261248993576
-0.22033898305084743,0.2847457627118644,-0.0001389781785941916,6.131765018177311e-05,0.0001519038786508538,2.726077984264996
-0.18644067796610164,0.2847457627118644,-7.015418899340004e-05,0.00013466939353585483,0.00015184681685381698,2.0510524265434227
-0.15254237288135597,0.2847457627118644,2.9201388639813562e-05,0.00014973065081454564,0.000152551594196327,1.3781878813571784
-0.11864406779661019,0.2847457627118644,0.00011680533358065246,0.0001002638827973489,0.00015393613008805963,0.7093415787555496
-0.0847457627118644,0.2847457627118644,0.00015559663222503847,7.201823157420754e-06,0.0001557632120128647,0.04625220213946765
-0.05084745762711862,0.2847457627118644,0.00012916956094463031,-9.029227115398437e-05,0.00015759907900991427,-0.6100687997516345
-0.016949152542372836,0.2847457627118644,4.851318378262993e-05,-0.00015126257775442486,0.00015885180650417752,-1.2604389006755035
0.016949152542372836,0.2847457627118644,-5.266375488803779e-05,-0.00015007087661433695,0.0001590431988068112,-1.9082957480235594
0.05084745762711873,0.2847457627118644,-0.00013203072851608312,-8.710415938462282e-05,0.00015817473835789777,-2.5584102414453613
0.0847457627118644,0.2847457627118644,-0.0001563087591961605,1.1356578756568458e-05,0.00015672077106273257,3.069065309989622
0.11864406779661008,0.2847457627118644,-0.00011522063256114825,0.00010406105865243431,0.00015525623367728753,2.407042121676826
0.15254237288135597,0.2847457627118644,-2.5922218068246708e-05,0.0001519966690901396,0.00015419127343684253,1.7397157837578952
0.18644067796610164,0.2847457627118644,7.399216170218758e-05,0.00013476962948691964,0.00015374554635957518,1.0687004686338517
0.22033898305084754,0.2847457627118644,0.0001421009101055488,5.9354744585236046e-05,0.00015399887778033924,0.3956664431207568
0.2542372881355932,0.2847457627118644,0.00014897799375350682,-4.250572568092541e-05,0.00015492314010012191,-0.27793089987043035
0.2881355932203389,0.2847457627118644,9.083227102257924e-05,-0.0001273260411228849,0.00015640467450541836,-0.9511446424106478
0.3220338983050848,0.2847457627118644,-8.391269666216028e-06,-0.00015806760451539365,0.00015829017974544743,-1.623833128834719
0.35593220338983045,0.2847457627118644,-0.00010652923516118849,-0.00012000874424573766,0.00016046986209088197,-2.296762360066619
0.38983050847457634,0.2847457627118644,-0.00016062469671301646,-2.7617954864815834e-05,0.0001629817309549249,-2.9713167202064406
0.423728813559322,0.2847457627118644,-0.00014518715217389167,8.066909190615995e-05,0.00016609277993136624,2.6344438189140633
0.4576271186440677,0.2847457627118644,-6.369032987043385e-05,0.0001579365485243772,0.00017029507179832783,1.9541144457143338
0.4915254237288136,0.2847457627118644,5.1703335248815094e-05,0.0001684061898305903,0.000176164354081943,1.2729156518452387
0.5254237288135593,0.2847457627118644,0.00015248804131730818,0.0001031555995366372,0.00018410236408192087,0.5947679160061301
0.5593220338983051,0.2847457627118644,0.0001935517186302466,-1.4749125040854443e-05,0.00019411286529798306,-0.07605551471979236
0.5932203389830508,0.2847457627118644,0.00015241171005454522,-0.0001382643591971438,0.00020578231796232534,-0.7367660351629307
0.6271186440677967,0.2847457627118644,3.996258535832498e-05,-0.00021477130681883265,0.000218457598771914,-1.3868297704217807
0.6610169491525424,0.2847457627118644,-0.00010208329414752008,-0.00020774420019120028,0.00023147062806561574,-2.027531743810965
0.6949152542372881,0.2847457627118644,-0.0002166335782598617,-0.00011292590556636161,0.0002442997490331385,-2.661069404055095
0.728813559322034,0.2847457627118644,-0.00025382935871103506,3.788347882653794e-05,0.00025664080211777713,2.9934384138996277
0.7627118644067796,0.2847457627118644,-0.00019196120098820434,0.000187585780050159,0.00026839807667317664,2.367721988363172
0.7966101694915255,0.2847457627118644,-4.810227092387215e-05,0.00027545232769006587,0.0002796208384543416,1.7436830742465887
0.8305084745762712,0.2847457627118644,0.00012636716128336503,0.0002614868081393483,0.0002904204026609018,1.1206269342709847
0.8644067796610169,0.2847457627118644,0.0002643120442138644,0.0001438044018222797,0.0003008995890658136,0.4982794624228867
0.8983050847457628,0.2847457627118644,0.0003087460488505263,-3.830218141519149e-05,0.00031111280877195305,-0.12342662705491063
0.9322033898305084,0.2847457627118644,0.00023610865202481658,-0.0002175611359216186,0.00032106096527681607,-0.7445376228986279
0.9661016949152543,0.2847457627118644,6.75193535819297e-05,-0.00032374911356623543,0.0003307149099194726,-1.3651889237779673
1.0,0.2847457627118644,-0.00013705058768029334,-0.0003112116467484009,0.0003400522792974122,-1.9856193755669695
-1.0,0.3016949152542373,0.000177493589155973,-0.0004187188261998895,0.0004547850366994088,-1.1698604329269298
-0.9661016949152542,0.3016949152542373,-9.756985680670257e-05,-0.0004313879901734634,0.00044228438252235465,-1.7932303647071168
-0.9322033898305084,0.3016949152542373,-0.0003216222752537208,-0.0002848154242714954,0.0004296053000631301,-2.4168136691062836
-0.8983050847457628,0.3016949152542373,-0.00041459914610212034,-4.197266633423331e-05,0.00041671831813325927,-3.0406996556834844
-0.864406779661017,0.3016949152542373,-0.00034956455050039176,0.00020171556771244063,0.0004035895752173155,2.6182205173271513
-0.8305084745762712,0.3016949152542373,-0.00016005331768041142,0.00035582213662679483,0.000390162091205904,1.993494487112748
-0.7966101694915254,0.3016949152542373,7.57426744340068e-05,0.000368643193875313,0.00037634393461434654,1.3681530843600216
-0.7627118644067796,0.3016949152542373,0.00026688438460147437,0.0002445982365912133,0.0003620159831936138,0.7418540432464755
-0.728813559322034,0.3016949152542373,0.0003448181286634526,3.945521429357295e-05,0.000347068085236769,0.11392777712463159
-0.6949152542372881,0.3016949152542373,0.0002881865125045155,-0.00016375896900461956,0.0003314641246333775,-0.5167387667402817
-0.6610169491525424,0.3016949152542373,0.000128309580529987,-0.0002880367563171733,0.0003153228844303881,-1.1517221694526283
-0.6271186440677966,0.3016949152542373,-6.586175493895611e-05,-0.0002916408115733866,0.0002989851731086722,-1.7929022999024975
-0.5932203389830508,0.3016949152542373,-0.0002165563154865694,-0.00018222986763448794,0.0002830271408102085,-2.4420601641394537
-0.5593220338983051,0.3016949152542373,-0.0002679555811040435,-1.1083343060823265e-05,0.0002681847011636002,-3.1002536048135165
-0.5254237288135593,0.3016949152542373,-0.00020685648908495634,0.00014942245936318347,0.00025517969832785856,2.5160246768878656
-0.4915254237288136,0.3016949152542373,-6.558635651231519e-05,0.0002355299147616422,0.0002444911264405867,1.8423791622331467
-0.4576271186440678,0.3016949152542373,9.321385079610124e-05,0.00021701265135262506,0.0002361849123617633,1.1650934120446572
-0.423728813559322,0.3016949152542373,0.00020317411722693197,0.00010763821684111118,0.00022992543929647533,0.4871892424555852
-0.38983050847457623,0.3016949152542373,0.00022114074354839792,-4.240532121298857e-05,0.00022516980198133816,-0.18945733644968749
-0.35593220338983056,0.3016949152542373,0.00014371602398682403,-0.00016842599880791662,0.00022140824877367536,-0.8643960215042593
-0.3220338983050848,0.3016949152542373,7.123869952026418e-06,-0.0002182028778953318,0.00021831913668961424,-1.5381599997265685
-0.288135593220339,0.3016949152542373,-0.00012900849622783913,-0.00017299579522309522,0.00021580254230161303,-2.21156029967291
-0.2542372881355932,0.3016949152542373,-0.00020692527346788888,-5.427234073430134e-05,0.00021392418229022333,-2.885090242527743
-0.22033898305084743,0.3016949152542373,-0.00019458070443560487,8.619904387813774e-05,0.00021281899751704814,2.7245760503540364
-0.18644067796610164,0.3016949152542373,-9.837371394289997e-05,0.00018846711471203322,0.0002125964273519153,2.051863117990456
-0.15254237288135597,0.3016949152542373,4.019074259378477e-05,0.00020944964765555961,0.00021327083882537233,1.3812134000943237
-0.11864406779661019,0.3016949152542373,0.00016226469871536255,0.00014061876558147765,0.00021471718534585426,0.7140532516302268
-0.0847457627118644,0.3016949152542373,0.00021634875934939217,1.117842979058918e-05,0.00021663735357644202,0.051622659008678115
-0.05084745762711862,0.3016949152542373,0.00017968605331258468,-0.0001243976282765312,0.000218544841338978,-0.6055431262811575
-0.016949152542372836,0.3016949152542373,6.758630103652332e-05,-0.0002091987877636217,0.00021984549322096278,-1.258309093800181
0.016949152542372836,0.3016949152542373,-7.307842069853395e-05,-0.0002076104095740605,0.00022009665543869827,-1.9092498704935974
0.05084745762711873,0.3016949152542373,-0.00018345187542110358,-0.00012015226068102476,0.0002192969592636456,-2.5617437756929573
0.0847457627118644,0.3016949152542373,-0.00021724011322729695,1.669840226034612e-05,0.0002178809386638885,3.064877395211134
0.11864406779661008,0.3016949152542373,-0.0001600906650738958,0.00014563781737854777,0.00021642410885709914,2.4034327967911997
0.15254237288135597,0.3016949152542373,-3.5768140709122915e-05,0.00021239861487981604,0.0002153892557502626,1.7376319947793812
0.18644067796610164,0.3016949152542373,0.00010351377220761878,0.00018850551784765272,0.00021505680946127352,1.0686223786630042
0.22033898305084754,0.3016949152542373,0.00019872611357458266,8.34806451413363e-05,0.00021554833873094832,0.39769504988708054
0.2542372881355932,0.3016949152542373,0.00020876919002157555,-5.8680118009301306e-05,0.00021685924225600865,-0.2740066831258846
0.2881355932203389,0.3016949152542373,0.00012808427325210688,-0.00017750675855757013,0.00021889319401967682,-0.9457373873855776
0.3220338983050848,0.3016949152542373,-1.0309250193028146e-05,-0.00022127970794237495,0.00022151972775941473,-1.617351887867859
0.35593220338983045,0.3016949152542373,-0.00014789358978172575,-0.00016911925010938363,0.00022466382587342724,-2.2893390682846517
0.38983050847457634,0.3016949152542373,-0.00022475804628299751,-4.067344163610185e-05,0.00022840864305773422,-2.962564719114092
0.423728813559322,0.3016949152542373,-0.00020496823601252564,0.00011094009229095032,0.00023306583158329104,2.6454882003036273
0.4576271186440677,0.3016949152542373,-9.267308658925835e-05,0.00022046959922254498,0.00023915506509235757,1.9687167514961017
0.4915254237288136,0.3016949152542373,6.803858481863628e-05,0.00023770816009791842,0.0002472537530579877,1.2920223582306936
0.5254237288135593,0.3016949152542373,0.0002100235159617603,0.00014941914455197014,0.00025775173717277315,0.6183626696648085
0.5593220338983051,0.3016949152542373,0.0002703197628607353,-1.3281566828088996e-05,0.0002706458464682086,-0.04909332105390683
0.5932203389830508,0.3016949152542373,0.00021686146139445993,-0.00018571327729831447,0.00028551412364893875,-0.7081795818640224
0.6271186440677967,0.3016949152542373,6.361622120751645e-05,-0.0002948874775408094,0.0003016714239219635,-1.3583220528422975
0.6610169491525424,0.3016949152542373,-0.00013259435367578106,-0.00028946427024548416,0.0003183878552574655,-2.000339410731933
0.6949152542372881,0.3016949152542373,-0.0002931170374218243,-0.00016232510410208205,0.0003350627359893949,-2.6358447814011954
0.728813559322034,0.3016949152542373,-0.00034856910052952846,4.381716322616758e-05,0.00035131234199377786,3.016542762194944
0.7627118644067796,0.3016949152542373,-0.0002678304876026407,0.0002508712279900943,0.0003669734910354236,2.388878439014486
0.7966101694915255,0.3016949152542373,-7.305628715978393e-05,0.0003749970204701446,0.00038204709978621596,1.7632045674993257
0.8305084745762712,0.3016949152542373,0.00016604867016445675,0.0003601840413805418,0.00039661657117246677,1.1388237815956896
0.8644067796610169,0.3016949152542373,0.00035741683524915987,0.0002024560641379807,0.0004107739670740677,0.5153792650659703
0.8983050847457628,0.3016949152542373,0.0004221331572477504,-4.5468365970972425e-05,0.00042457481643642535,-0.1072972902270525
0.9322033898305084,0.3016949152542373,0.00032660434743217003,-0.0002918871933196643,0.0004380280052526604,-0.7293250268304448
0.9661016949152543,0.3016949152542373,9.841824791880668e-05,-0.000440248411432883,0.00045111507987716915,-1.350860895191562
1.0,0.3016949152542373,-0.00018118608216056528,-0.00042697086390625257,0.0004638237973557919,-1.97211826646231
-1.0,0.3186440677966102,0.00023460684488486102,-0.0005751605651587003,0.0006211682923173919,-1.1834999248972964
-0.9661016949152542,0.3186440677966102,-0.00014163167493279948,-0.0005873208285877379,0.0006041566742470509,-1.807427195666975
-0.9322033898305084,0.3186440677966102,-0.00044512111023926735,-0.00038255420715569625,0.0005869246324641361,-2.4316445267609454
-0.8983050847457628,0.3186440677966102,-0.0005673565476788504,-4.8539343151290725e-05,0.0005694291176499691,-3.0562469668305887
-0.864406779661017,0.3186440677966102,-0.00047320336322926785,0.0002834871206664278,0.0005516215827496529,2.6018491989517165
-0.8305084745762712,0.3186440677966102,-0.00021035297078218936,0.0004902057206411186,0.0005334323020460713,1.976144392193656
-0.7966101694915254,0.3186440677966102,0.0001129317494778318,0.0005022229028006159,0.0005147634642606259,1.3496115270409634
-0.7627118644067796,0.3186440677966102,0.00037191153986536606,0.0003274222959720426,0.0004955033333738852,0.7218671716595809
-0.728813559322034,0.3186440677966102,0.0004735466081429035,4.381310224437529e-05,0.00047556910960650574,0.09225855232388276
-0.6949152542372881,0.3186440677966102,0.0003901890820683767,-0.0002340001498641094,0.0004549764718112224,-0.5402059652397612
-0.6610169491525424,0.3186440677966102,0.00016655671322253336,-0.0004006806822014048,0.0004339195176629836,-1.1768424507802933
-0.6271186440677966,0.3186440677966102,-0.0001014712552622591,-0.00040016478142506317,0.00041282958704224086,-1.819135612676368
-0.5932203389830508,0.3186440677966102,-0.0003067740139034013,-0.0002446360233381143,0.0003923736478423222,-2.468410346009308
-0.5593220338983051,0.3186440677966102,-0.0003733123959652386,-6.056830147289527e-06,0.0003733615274405495,-3.125369514906878
-0.5254237288135593,0.3186440677966102,-0.0002842699930019063,0.00021523652680863062,0.0003565616235574802,2.493527870001826
-0.4915254237288136,0.3186440677966102,-8.561294037479344e-05,0.00033160422973906625,0.00034247764998676536,1.8234570642781984
-0.4576271186440678,0.3186440677966102,0.00013530715547730658,0.0003022935896608746,0.0003311939623142567,1.1499385328690064
-0.423728813559322,0.3186440677966102,0.00028665747064334944,0.00014752344464805583,0.00032239055847910734,0.4752855018450372
-0.38983050847457623,0.3186440677966102,0.0003093005043512917,-6.235830889500681e-05,0.00031552394628650375,-0.1989438840341029
-0.35593220338983056,0.3186440677966102,0.00019941524215177068,-0.00023742354391360996,0.00031005866865312315,-0.8721872135954443
-0.3220338983050848,0.3186440677966102,7.998566912398089e-06,-0.00030552481061987054,0.0003056294929763158,-1.5446225430855047
-0.288135593220339,0.3186440677966102,-0.00018183058561582337,-0.00024123741640215448,0.0003020891473353185,-2.2166875225713087
-0.2542372881355932,0.3186440677966102,-0.00028993243693365713,-7.494471805487448e-05,0.0002994620656287098,-2.8886392353156296
-0.22033898305084743,0.3186440677966102,-0.00027212011218340226,0.00012109982399248208,0.0002978498326770011,2.7228849503586
-0.18644067796610164,0.3186440677966102,-0.00013766159818854912,0.0002635435520167222,0.0002973313293708154,2.0521625286431706
-0.15254237288135597,0.3186440677966102,5.5507217156023804e-05,0.00029266650551520415,0.0002978837602268492,1.383362265064297
-0.11864406779661019,0.3186440677966102,0.00022551787058645677,0.00019682509919199704,0.0002993299678044103,0.7175652600557398
-0.0847457627118644,0.3186440677966102,0.00030084157727902855,1.675595889622761e-05,0.00030130784387112424,0.05563946554226708
-0.05084745762711862,0.3186440677966102,0.00024993549491441805,-0.0001717865214282777,0.0003032793441079415,-0.6021674366749856
-0.016949152542372836,0.3186440677966102,9.413240795262821e-05,-0.00028973284770712694,0.0003046408266589382,-1.256660478495045
0.016949152542372836,0.3186440677966102,-0.00010141348521631652,-0.0002876130035232519,0.00030496874393843405,-1.9097890500502
0.05084745762711873,0.3186440677966102,-0.0002549033944828139,-0.0001661254392814231,0.0003042587748862912,-2.5640097976897036
0.0847457627118644,0.3186440677966102,-0.0003019612625202378,2.4101453074860973e-05,0.0003029215807814552,3.0619451287663435
0.11864406779661008,0.3186440677966102,-0.00022254225032797636,0.00020347262365660575,0.00030153965205050964,2.4009274477922418
0.15254237288135597,0.3186440677966102,-4.954378591292798e-05,0.00029651580693018154,0.00030062636358450454,1.7363534547883421
0.18644067796610164,0.3186440677966102,0.00014454783562375197,0.00026347945847619554,0.0003005253763368752,1.06901984156551
0.22033898305084754,0.3186440677966102,0.00027762682446476767,0.00011734823795174283,0.00030140879650861186,0.3999067941230273
0.2542372881355932,0.3186440677966102,0.0002923108460201817,-8.092819396065667e-05,0.00030330678079919026,-0.2700914787200258
0.2881355932203389,0.3186440677966102,0.00018047120362241545,-0.0002473030014514989,0.00030615131857276626,-0.9403768281595785
0.3220338983050848,0.3186440677966102,-1.2388077616893751e-05,-0.0003095968328772301,0.0003098445794178974,-1.610788572142771
0.35593220338983045,0.3186440677966102,-0.00020509878418440558,-0.00023822929661629442,0.0003143544321943239,-2.2816017806320215
0.38983050847457634,0.3186440677966102,-0.00031416301539083076,-5.9860173894259845e-05,0.00031981501005754934,-2.953310946675848
0.423728813559322,0.3186440677966102,-0.0002889820483225516,0.000152144447026321,0.00032658621681516594,2.6569829509296423
0.4576271186440677,0.3186440677966102,-0.0001344014905586099,0.00030709551920995293,0.0003352184639652277,1.983335769206428
0.4915254237288136,0.3186440677966102,8.916619139211438e-05,0.00033461888389913353,0.0003462952600733614,1.310376724148097
0.5254237288135593,0.3186440677966102,0.00028883127958117264,0.00021521707447202888,0.0003601970255412951,0.640377512758649
0.5593220338983051,0.3186440677966102,0.0003767975390520839,-9.146035077781646e-06,0.00037690852390646554,-0.024268310001468438
0.5932203389830508,0.3186440677966102,0.0003074445554379863,-0.00024956920410701313,0.00039598856335387896,-0.6818667540425938
0.6271186440677967,0.3186440677966102,9.861983181537483e-05,-0.00040487141768901663,0.00041670941444705445,-1.3318661651612722
0.6610169491525424,0.3186440677966102,-0.00017227677738358422,-0.0004029902822665278,0.0004382698433920919,-1.9747792993301008
0.6949152542372881,0.3186440677966102,-0.0003969194860479036,-0.0002324565571464534,0.000459979487982795,-2.6117902121344545
0.728813559322034,0.3186440677966102,-0.00047882565609108445,4.9357226911586955e-05,0.00048136279953841404,3.03887568678598
0.7627118644067796,0.3186440677966102,-0.00037352390599217837,0.0003356500984882003,0.0005021763604181227,2.4095493248338102
0.7966101694915255,0.3186440677966102,-0.00010971645657933289,0.0005107083701218407,0.0005223607375720649,1.7824118216220823
0.8305084745762712,0.3186440677966102,0.00021801967432416832,0.000496174741026572,0.0005419612089672122,1.1567914113336373
0.8644067796610169,0.3186440677966102,0.00048342884956949315,0.0002847370854320338,0.0005610513883918414,0.5322881506714519
0.8983050847457628,0.3186440677966102,0.0005772669439639611,-5.286969036827733e-05,0.0005796829553757196,-0.09133141299601531
0.9322033898305084,0.3186440677966102,0.0004517466106142456,-0.0003916295491663488,0.000597870139730775,-0.7142370914145095
0.9661016949152543,0.3186440677966102,0.00014285611722420047,-0.0005987994423144697,0.0006156042903883097,-1.3366030579786488
1.0,0.3186440677966102,-0.00023934505688475718,-0.0005858803913452549,0.0006328837880828017,-1.958627639597914
-1.0,0.3355932203389831,0.00030981235486898275,-0.0007900658147428675,0.0008486387257571832,-1.1970885690813213
-0.9661016949152542,0.3355932203389831,-0.00020483960096244507,-0.0007996962030148606,0.0008255139485428691,-1.8215517677713897
-0.9322033898305084,0.3355932203389831,-0.0006159605033859308,-0.0005137965847843863,0.0008021186148367013,-2.446379179902389
-0.8983050847457628,0.3355932203389831,-0.0007764929563555887,-5.4380627662878247e-05,0.0007783948637644333,-3.071673176713119
-0.864406779661017,0.3355932203389831,-0.0006406795799667733,0.00039807969698863176,0.0007542796360375652,2.5856297512786384
-0.8305084745762712,0.3355932203389831,-0.0002762058266597248,0.0006753974676660605,0.0007296926736719433,1.9589969088986416
-0.7966101694915254,0.3355932203389831,0.00016708017427028018,0.0006844370509298393,0.0007045352094251377,1.3313657327419073
-0.7627118644067796,0.3355932203389831,0.0005180834412292406,0.0004384496926174168,0.0006787109731190732,0.7023372350204172
-0.728813559322034,0.3355932203389831,0.0006505188682801294,4.645703726930112e-05,0.0006521756314830396,0.07129431750809379
-0.6949152542372881,0.3355932203389831,0.0005286662110187401,-0.0003333910193412668,0.0006250100274798157,-0.5626352415745121
-0.6610169491525424,0.3355932203389831,0.00021620451153422747,-0.0005570093976631974,0.0005974979999070055,-1.2005449713027612
-0.6271186440677966,0.3355932203389831,-0.00015362788001369756,-0.0005490890623520983,0.0005701756956519714,-1.8436073327344602
-0.5932203389830508,0.3355932203389831,-0.0004333223412414565,-0.0003285814719954366,0.0005438143388672876,-2.492810723762889
-0.5593220338983051,0.3355932203389831,-0.0005192978849795467,3.6493619143920694e-06,0.0005193107077527025,3.134565276921492
-0.5254237288135593,0.3355932203389831,-0.00039022589606466,0.00030858273793572393,0.0004974932724282556,2.472499153457921
-0.4915254237288136,0.3355932203389831,-0.00011132269825405202,0.0004657844871162329,0.0004789028414873885,1.8053959741427221
-0.4576271186440678,0.3355932203389831,0.00019570217556071052,0.0004203225789805173,0.00046364901802983295,1.1350454710045388
-0.423728813559322,0.3355932203389831,0.0004038497110670499,0.00020172312488468572,0.000451427522690168,0.4632479138707688
-0.38983050847457623,0.3355932203389831,0.00043210760210972773,-9.151203283694676e-05,0.00044169155748663484,-0.20869703093066805
-0.35593220338983056,0.3355932203389831,0.0002763826944741009,-0.0003344575212935346,0.0004338769726023488,-0.8801869292392671
-0.3220338983050848,0.3355932203389831,8.390156736270046e-06,-0.0004274883311897108,0.00042757065852724635,-1.5511722129565757
-0.288135593220339,0.3355932203389831,-0.0002560821539001318,-0.00033613721614934237,0.0004225710563050438,-2.2218308988825197
-0.2542372881355932,0.3355932203389831,-0.0004058984508088333,-0.00010335960555631543,0.0004188517165176335,-2.8922479644494046
-0.22033898305084743,0.3355932203389831,-0.00038016735821380806,0.00017005709898283553,0.0004164692511647454,2.7209682567219087
-0.18644067796610164,0.3355932203389831,-0.00019228794587329578,0.0003682819511636567,0.00041545908304077496,2.0519841598747433
-0.15254237288135597,0.3355932203389831,7.690090363360335e-05,0.0004085742741388171,0.00041574834511724285,1.3847551571681014
-0.11864406779661019,0.3355932203389831,0.00031355046937142286,0.0002750570040114598,0.00041709741344055323,0.7200936425448036
-0.0847457627118644,0.3355932203389831,0.0004183556949879287,2.4542904035841938e-05,0.00041907498334706807,0.058597998542883924
-0.05084745762711862,0.3355932203389831,0.00034762210158679693,-0.00023764417065335607,0.00042108891858744365,-0.5996532667392995
-0.016949152542372836,0.3355932203389831,0.0001310749415722655,-0.00040167230683425895,0.0004225177894310817,-1.2553682190794584
0.016949152542372836,0.3355932203389831,-0.00014074458558330257,-0.00039883984869502464,0.000422944752039892,-1.9100389543632657
0.05084745762711873,0.3355932203389831,-0.00035418979888261824,-0.0002300858287369753,0.0004223622878739179,-2.5654904687069213
0.0847457627118644,0.3355932203389831,-0.0004197673003182113,3.4331643941158826e-05,0.0004211689069626839,3.059986964762956
0.11864406779661008,0.3355932203389831,-0.0003094854972900221,0.0002838773189552679,0.0004199614330508019,2.3993254317003196
0.15254237288135597,0.3355932203389831,-6.886064830403436e-05,0.0004136124448193184,0.00041930542972189806,1.735769137211149
0.18644067796610164,0.3355932203389831,0.00020151762157460344,0.00036805581546792365,0.00041961224374992127,1.0698597642810936
0.22033898305084754,0.3355932203389831,0.00038748861583152067,0.00016489372923046724,0.00042111443734281837,0.4023319281226203
0.2542372881355932,0.3355932203389831,0.0004089685860730756,-0.00011147729918096894,0.0004238897175295644,-0.2661164283120143
0.2881355932203389,0.3355932203389831,0.00025410276411707894,-0.0003442963297265194,0.0004279114130227096,-0.9349968567565707
0.3220338983050848,0.3355932203389831,-1.4435648933988204e-05,-0.00043288557066793916,0.0004331262001456997,-1.6041314675321954
0.35593220338983045,0.3355932203389831,-0.0002841223067192039,-0.0003353847232336356,0.00043955477218879526,-2.2736354666394285
0.38983050847457634,0.3355932203389831,-0.00043866174392866766,-8.793982401322744e-05,0.00044738969392914876,-2.9437423532563085
0.423728813559322,0.3355932203389831,-0.0004068847078227611,0.00020816890513194558,0.0004570442631997985,2.66869513914699
0.4576271186440677,0.3355932203389831,-0.00019427997685472038,0.0004269820718950544,0.0004691038255295559,1.997806548971009
0.4915254237288136,0.3355932203389831,0.00011640365000423154,0.00046996072654137747,0.0004841620536820363,1.3279948093939398
0.5254237288135593,0.3355932203389831,0.0003967241779204418,0.00030855747644522105,0.0005025910759423544,0.6610341018998039
0.5593220338983051,0.3355932203389831,0.0005243574353863051,-6.486616859912277e-07,0.0005243578366029119,-0.0012370595157623213
0.5932203389830508,0.3355932203389831,0.00043454421131826793,-0.00033550246074657463,0.0005489905033397412,-0.6574825744706873
0.6271186440677967,0.3355932203389831,0.00015000302844335168,-0.0005558206308302612,0.0005757060727478272,-1.3071994334951331
0.6610169491525424,0.3355932203389831,-0.0002238408802669941,-0.0005605814639854544,0.0006036193481348805,-1.9507001896089413
0.6949152542372881,0.3355932203389831,-0.0005378351813677266,-0.00033177886098111824,0.0006319366225427859,-2.588854979563305
0.728813559322034,0.3355932203389831,-0.000657901973803381,5.3522203083540104e-05,0.0006600754755005676,3.060418562645116
0.7627118644067796,0.3355932203389831,-0.000520665589893865,0.0004492595952329785,0.0006876967648669187,2.4296820217350334
0.7966101694915255,0.3355932203389831,-0.00016324141412108059,0.0006957728399362099,0.0007146660787228879,1.8012470410958066
0.8305084745762712,0.3355932203389831,0.00028603161374568097,0.0006835453401236109,0.0007409779457356753,1.1744840707825783
0.8644067796610169,0.3355932203389831,0.000654020907439259,0.0004000642071386774,0.0007666777140371111,0.5489776291780462
0.8983050847457628,0.3355932203389831,0.0007895481402562447,-5.975959592036139e-05,0.0007918064631503457,-0.07554431207736917
0.9322033898305084,0.3355932203389831,0.0006247776447032049,-0.000525479637002807,0.0008163797855321296,-0.6992848739888813
0.9661016949152543,0.3355932203389831,0.00020658645313660317,-0.0008146099102143546,0.000840397089737346,-1.322430717325377
1.0,0.3355932203389831,-0.00031590819936668803,-0.0008040329393452349,0.0008638674423655759,-1.9451710099512673
-1.0,0.3525423728813559,0.0004087341322786152,-0.0010852754414063864,0.0011596923620552906,-1.2106079991633365
-0.9661016949152542,0.3525423728813559,-0.00029528046031837606,-0.0010889671537644258,0.0011282907480891734,-1.835585714084105
-0.9322033898305084,0.3525423728813559,-0.0008522454693358813,-0.000690017131586715,0.0010965609795568574,-2.4609976195027525
-0.8983050847457628,0.3525423728813559,-0.0010628411250171014,-5.81308740499365e-05,0.0010644296386071873,-3.086953242363634
-0.864406779661017,0.3525423728813559,-0.0008675768595948258,0.000558536833797156,0.001031820237256748,2.569595766772225
-0.8305084745762712,0.3525423728813559,-0.0003623345899927447,0.0009305948099738372,0.0009986456105423249,1.942095088504837
-0.7966101694915254,0.3525423728813559,0.00024554692730321384,0.0009330437221767809,0.0009648128735674869,1.313463484801011
-0.7627118644067796,0.3525423728813559,0.0007214017353096066,0.0005873224602668115,0.0009302516519961531,0.6833039974947283
-0.728813559322034,0.3525423728813559,0.0008938041660770818,4.5664407160028134e-05,0.0008949699019397382,0.051045564771644424
-0.6949152542372881,0.3525423728813559,0.0007167070080740005,-0.00047374616480671844,0.0008591300041853153,-0.5840720100115693
-0.6610169491525424,0.3525423728813559,0.00028057745617181485,-0.0007738269284468236,0.0008231232131955047,-1.222954876447892
-0.6271186440677966,0.3525423728813559,-0.0002295419428946684,-0.0007534170199691556,0.0007876082208351194,-1.8665300307917223
-0.5932203389830508,0.3525423728813559,-0.0006105770406519493,-0.0004415021600847003,0.0007534775908616981,-2.51553753561121
-0.5593220338983051,0.3525423728813559,-0.0007214345923157148,2.0703305733100005e-05,0.000721731596826701,3.112903115526782
-0.5254237288135593,0.3525423728813559,-0.0005351939672486389,0.00044067846112957643,0.0006932749012353388,2.452745663729193
-0.4915254237288136,0.3525423728813559,-0.00014420042400956206,0.0006529662356383435,0.0006686992352083605,1.7881467775143507
-0.4576271186440678,0.3525423728813559,0.0002820949017146207,0.0005835389648143363,0.0006481475580683527,1.1204997904080267
-0.423728813559322,0.3525423728813559,0.0005681443064681961,0.0002753057188366976,0.0006313328692507767,0.4512276333212745
-0.38983050847457623,0.3525423728813559,0.0006030055764922539,-0.0001339443287798737,0.0006177028480532095,-0.21857900742541517
-0.35593220338983056,0.3525423728813559,0.0003826317020036116,-0.00047077632527105315,0.0006066608342508168,-0.8883186571370227
-0.3220338983050848,0.3525423728813559,7.767844250651209e-06,-0.0005976895628980038,0.000597740037977639,-1.557800605558757
-0.288135593220339,0.3525423728813559,-0.0003603916343253952,-0.00046799129541941984,0.0005906758693903757,-2.2270264696285422
-0.2542372881355932,0.3525423728813559,-0.0005678082755166418,-0.00014234694979644896,0.0005853792718072064,-2.895959558701927
-0.22033898305084743,0.3525423728813559,-0.0005306169942507116,0.00023873107740930466,0.0005818478511678695,2.7188117159325413
-0.18644067796610164,0.3525423728813559,-0.00026815307971181737,0.0005143554122879561,0.0005800582421695648,2.0513683418174433
-0.15254237288135597,0.3525423728813559,0.00010683395845038058,0.0005699461474383582,0.0005798724908615724,1.3855008265850242
-0.11864406779661019,0.3525423728813559,0.0004360844775206265,0.00038387982430908513,0.0005809762396570207,0.7218169962283844
-0.0847457627118644,0.3525423728813559,0.0005817868869271063,3.537189656397375e-05,0.0005828611780405914,0.06072396934998837
-0.05084745762711862,0.3525423728813559,0.00048344521432487907,-0.00032918048833113165,0.000584875259479789,-0.5977955609547396
-0.016949152542372836,0.3525423728813559,0.00018247506220260345,-0.0005572546146797553,0.000586370065664787,-1.2543467807890543
0.016949152542372836,0.3525423728813559,-0.0001953374635179114,-0.0005534659717297561,0.0005869252989234443,-1.910083369859354
0.05084745762711873,0.3525423728813559,-0.0004921450296838877,-0.00031907763866412535,0.0005865298540893112,-2.566384805621973
0.0847457627118644,0.3525423728813559,-0.0005835729362070993,4.8433410313263525e-05,0.0005855793431363064,3.0587878149125913
0.11864406779661008,0.3525423728813559,-0.0004305400961223398,0.0003956022865502602,0.0005846930335593437,2.3984596060175125
0.15254237288135597,0.3525423728813559,-9.599375021910605e-05,0.0005765568029125577,0.0005844934106265682,1.735777846497339
0.18644067796610164,0.3525423728813559,0.00028052990149201755,0.0005138812418087897,0.0005854664433714923,1.0711031616261832
0.22033898305084754,0.3525423728813559,0.0005403600966216174,0.00023164028067308522,0.0005879168764810459,0.40498149708175574
0.2542372881355932,0.3525423728813559,0.000571776233161414,-0.0001533556012363515,0.000591984798148414,-0.2620418892332779
0.2881355932203389,0.3525423728813559,0.0003575355792451016,-0.0004789717882961783,0.0005977003132086927,-0.9295615891433622
0.3220338983050848,0.3525423728813559,-1.608648962455006e-05,-0.0006048550648795297,0.0006050689420709517,-1.5973856692128339
0.35593220338983045,0.3525423728813559,-0.00039317619244641185,-0.0004718316685051771,0.0006141763929939323,-2.265513508438929
0.38983050847457634,0.3525423728813559,-0.0006118580912526522,-0.00012887454046601264,0.0006252831126870971,-2.9339989126864316
0.423728813559322,0.3525423728813559,-0.0005721336045550399,0.00028426860068968046,0.0006388626603576168,2.6804625842635237
0.4576271186440677,0.3525423728813559,-0.00027994852624390747,0.0005927581527033038,0.0006555405440873728,2.012024022730149
0.4915254237288136,0.3525423728813559,0.00015139214435195056,0.0006587519924732631,0.0006759243810952345,1.3449021296324408
0.5254237288135593,0.3525423728813559,0.0005443726676174716,0.00044066728679993303,0.0007003779400470697,0.680504191226191
0.5593220338983051,0.3525423728813559,0.0007286939095084564,1.4768743642416246e-05,0.0007288435562886551,0.020264643043092744
0.5932203389830508,0.3525423728813559,0.000612615024233148,-0.0004511415848729118,0.0007608060840436433,-0.6347527145824065
0.6271186440677967,0.3525423728813559,0.00022492944171011438,-0.0007629462961450049,0.0007954120344509537,-1.284101451371131
0.6610169491525424,0.3525423728813559,-0.00029077183465473514,-0.000779189914643674,0.000831676128616721,-1.927963377334337
0.6949152542372881,0.3525423728813559,-0.0007291754500687148,-0.0004721387812315661,0.0008686839849598595,-2.5669791547687524
0.728813559322034,0.3525423728813559,-0.0009040750283725728,5.469036844300212e-05,0.0009057277147836979,3.0811731075664484
0.7627118644067796,0.3525423728813559,-0.0007253767558588749,0.0006015469188123706,0.0009423535076992087,2.4492459867013374
0.7966101694915255,0.3525423728813559,-0.00024097587285788394,0.0009481920194623198,0.0009783340314389823,1.8196699799628968
0.8305084745762712,0.3525423728813559,0.00037495660670648786,0.0009416937947548755,0.0010135973855494506,1.1918663414694675
0.8644067796610169,0.3525423728813559,0.0008850166723046856,0.0005615692201554815,0.0010481481285025008,0.565422686362339
0.8983050847457628,0.3525423728813559,0.0010800637799886852,-6.482995640940913e-05,0.0010820077135083154,-0.05995226095989729
0.9322033898305084,0.3525423728813559,0.0008639880312501667,-0.0007051010770597751,0.0011151873596012439,-0.6844815171944393
0.9661016949152543,0.3525423728813559,0.0002977509128840772,-0.0011083954144826737,0.0011476915966275607,-1.3083596128751018
1.0,0.3525423728813559,-0.0004165955870780569,-0.001103522373812815,0.0011795395341735607,-1.9317695784034732
-1.0,0.3694915254237288,0.0005387029744097877,-0.0014907843131862187,0.001585130519257029,-1.2240413636264849
-0.9661016949152542,0.3694915254237288,-0.00042438260005194244,-0.0014830051177836625,0.0015425319350338852,-1.8495116623126369
-0.9322033898305084,0.3694915254237288,-0.0011789853032169416,-0.0009266175896757026,0.001499542097674471,-2.4754807899382394
-0.8983050847457628,0.3694915254237288,-0.0014549346623347718,-5.754115934577934e-05,0.0014560720643848825,-3.102064289519347
-0.864406779661017,0.3694915254237288,-0.0011750289972818748,0.0007830374901410625,0.001412034296828396,2.5537757687710476
-0.8305084745762712,0.3694915254237288,-0.0004748592161909005,0.0012822355641644934,0.0013673402346196328,1.9254725951311407
-0.7966101694915254,0.3694915254237288,0.0003587802335268494,0.0012722926514185733,0.0013219121933106162,1.2959385716799103
-0.7627118644067796,0.3694915254237288,0.0010040498111062587,0.0007869836648556217,0.0012757191352065311,0.6647903534133566
-0.728813559322034,0.3694915254237288,0.0012282286893937826,3.871120267493486e-05,0.0012288385860895273,0.03150748093472803
-0.6949152542372881,0.3694915254237288,0.0009721047349173113,-0.0006715925421194317,0.0011815346623265423,-0.6045683302764745
-0.6610169491525424,0.3694915254237288,0.00036393028164467036,-0.0010743623051456587,0.0011343278241389755,-1.2441870271837672
-0.6271186440677966,0.3694915254237288,-0.00033945172844884513,-0.0010337132337186108,0.001088021380999425,-1.8880831293387785
-0.5932203389830508,0.3694915254237288,-0.000858535696278105,-0.0005933998056793805,0.0010436507419458183,-2.536812995744689
-0.5593220338983051,0.3694915254237288,-0.0010011382253309487,4.9075657659994185e-05,0.0010023403445903805,3.0926119991071555
-0.5254237288135593,0.3694915254237288,-0.000733471691410388,0.0006272309885354485,0.0009650903766381526,2.434114232959211
-0.4915254237288136,0.3694915254237288,-0.00018606049630895353,0.0009138099853885813,0.000932559487476597,1.771660245642972
-0.4576271186440678,0.3694915254237288,0.00040534435609091183,0.0008090743044688782,0.0009049338523707437,1.1063508858281268
-0.423728813559322,0.3694915254237288,0.0007981953620880622,0.0003751190697809105,0.0008819467969056797,0.43932727994139953
-0.38983050847457623,0.3694915254237288,0.0008406081763581006,-0.00019548346883354988,0.0008630387550668213,-0.22848895960251597
-0.35593220338983056,0.3694915254237288,0.0005291690285727646,-0.0006620914450575963,0.0008475759213304136,-0.8965198355121258
-0.3220338983050848,0.3694915254237288,5.264526422114771e-06,-0.0008350137314149743,0.0008350303269283146,-1.56449169194679
-0.288135593220339,0.3694915254237288,-0.0005068331839709312,-0.0006510374525048752,0.0008250634163130428,-2.2322898423711046
-0.2542372881355932,0.3694915254237288,-0.0007937270582055293,-0.00019575153320770493,0.0008175092083155828,-2.899794640533239
-0.22033898305084743,0.3694915254237288,-0.0007399681730305211,0.00033505392187834014,0.0008122893743390863,2.7164167989062613
-0.18644067796610164,0.3694915254237288,-0.00037340540265254016,0.0007180115333063704,0.0008093035009754194,2.050358817752611
-0.15254237288135597,0.3694915254237288,0.0001487697998344736,0.0007945226677719377,0.0008083308251862143,1.3856954538505455
-0.11864406779661019,0.3694915254237288,0.000606646760576232,0.0005351709099324129,0.0008089673633438638,0.7228814316408747
-0.0847457627118644,0.3694915254237288,0.0008090498342687003,5.038016874975336e-05,0.0008106169229256597,0.06219048420223947
-0.05084745762711862,0.3694915254237288,0.0006722601833063758,-0.0004564184103564699,0.0008125586251904836,-0.596445438775588
-0.016949152542372836,0.3694915254237288,0.00025397303888530877,-0.0007734775846316713,0.0008141067979130765,-1.253535503715695
0.016949152542372836,0.3694915254237288,-0.00027110751155029304,-0.000768405102504437,0.0008148286227016369,-1.9099798214563022
0.05084745762711873,0.3694915254237288,-0.0006838051965565588,-0.000442900646229991,0.0008147088616608375,-2.566835983318567
0.0847457627118644,0.3694915254237288,-0.0008113176790067816,6.782908602351003e-05,0.0008141481199264269,3.0581830159988876
0.11864406779661008,0.3694915254237288,-0.0005990943904054288,0.0005507736323759302,0.0008137970771241617,2.3981926531216295
0.15254237288135597,0.3694915254237288,-0.00013415382698339553,0.0008032166250443077,0.0008143428000798305,1.7362894783752671
0.18644067796610164,0.3694915254237288,0.0003900114243505613,0.0007171664811882486,0.0008163557269131443,1.0727081189998637
0.22033898305084754,0.3694915254237288,0.0007529476232099031,0.00032533402810571517,0.0008202270131743605,0.40785262387854126
0.2542372881355932,0.3694915254237288,0.0007988637478616562,-0.00021067621851662735,0.000826176589293135,-0.2578491906279914
0.2881355932203389,0.3694915254237288,0.0005027454189546405,-0.0006658225743809375,0.0008343096888057432,-0.9240556592395188
0.3220338983050848,0.3694915254237288,-1.669827990688876e-05,-0.0008445429111213951,0.0008447079739633392,-1.5905657242278122
0.35593220338983045,0.3694915254237288,-0.0005435370247092806,-0.000663277759741875,0.000857537103452683,-2.257297704968886
0.38983050847457634,0.3694915254237288,-0.0008525834974529785,-0.00018833498477120153,0.0008731372667673289,-2.924184853759347
0.423728813559322,0.3694915254237288,-0.0008034698285579832,0.00038754534192894863,0.0008920510957640379,2.6921728927512993
0.4576271186440677,0.3694915254237288,-0.000402190420464406,0.0008218134807074849,0.0009149505622632773,2.0259230296643884
0.4915254237288136,0.3694915254237288,0.00019615828204673882,0.0009218211654719183,0.0009424607857770708,1.361129373877535
0.5254237288135593,0.3694915254237288,0.0007463472467791428,0.0006272685385586339,0.0009749359118630778,0.6989243843212724
0.5593220338983051,0.3694915254237288,0.0010114576282642996,4.092945868048567e-05,0.0010122854115129389,0.040443750721357294
0.5932203389830508,0.3694915254237288,0.0008617642988186269,-0.0006067485502130618,0.0010539361982131613,-0.6134570676165432
0.6271186440677967,0.3694915254237288,0.000333577434728909,-0.0010470952023953445,0.001098945980401069,-1.2623873478180692
0.6610169491525424,0.3694915254237288,-0.0003775390147757067,-0.0010822475517613854,0.0011462091741786594,-1.9064437729335582
0.6949152542372881,0.3694915254237288,-0.000989032641832523,-0.0006701106516051339,0.0011946689298734093,-2.546099064143998
0.728813559322034,0.3694915254237288,-0.0012424522909551805,5.026967715395647e-05,0.0012434688318333272,3.1011546635866982
0.7627118644067796,0.3694915254237288,-0.0010100049119622398,0.0008057283934139086,0.0012920170920468544,2.468226999495143
0.7966101694915255,0.3694915254237288,-0.00035335301503756325,0.0012925420009011872,0.001339971334517937,1.837654289600701
0.8305084745762712,0.3694915254237288,0.0004911112726908505,0.001297328227571478,0.001387173677741104,1.2089117934453764
0.8644067796610169,0.3694915254237288,0.001197869019576544,0.0007875520698950655,0.0014335719203643997,0.5816022889479667
0.8983050847457628,0.3694915254237288,0.0014776869630483904,-6.59056074335513e-05,0.0014791559450762315,-0.04457098236035897
0.9322033898305084,0.3694915254237288,0.0011946357931261692,-0.0009461455452147941,0.001523924562092229,-0.6698407337641792
0.9661016949152543,0.3694915254237288,0.00042785256840728245,-0.0015083762031123126,0.0015678828369518638,-1.2944051796858074
1.0,0.3694915254237288,-0.0005488645441289795,-0.0015146802683762982,0.0016110582246493786,-1.9184424883911353
-1.0,0.3864406779661017,0.0007092577219377358,-0.002047782632565759,0.00216713179718407,-1.2373732926384922
-0.9661016949152542,0.3864406779661017,-0.0006082729885267269,-0.002019792248092378,0.0021093972489849553,-1.8633135311356124
-0.9322033898305084,0.3864406779661017,-0.0016307184588443204,-0.0012442695860820502,0.0020512068386353416,-2.489811157206328
-0.8983050847457628,0.3864406779661017,-0.001991854136693557,-4.902250898987029e-05,0.0019924573039969756,-3.1169861256226725
-0.864406779661017,0.3864406779661017,-0.0015916989359397171,0.0010969016364790096,0.001933054242069259,2.5381932791375004
-0.8305084745762712,0.3864406779661017,-0.0006216941406013598,0.001766722868723853,0.0018729157213633247,1.909154917162203
-0.7966101694915254,0.3864406779661017,0.0005215848333134798,0.0017352992624274101,0.0018119917959316934,1.27881354236328
-0.7627118644067796,0.3864406779661017,0.0013967674279265691,0.0010548076081901344,0.001750308069458744,0.6468066070841698
-0.728813559322034,0.3864406779661017,0.001687897950089339,2.137838457328325e-05,0.0016880333306077688,0.012665008279449852
-0.6949152542372881,0.3864406779661017,0.001319048634075439,-0.0009500268939682725,0.0016255584881262454,-0.6241787528490473
-0.6610169491525424,0.3864406779661017,0.00047169004809143305,-0.0014907142522371363,0.0015635601949689762,-1.2643452796282941
-0.6271186440677966,0.3864406779661017,-0.0004978646212973627,-0.0014181612999647234,0.0015030138568413803,-1.9084182403022396
-0.5932203389830508,0.3864406779661017,-0.0012049973310308915,-0.000797725911428779,0.0014451246304580268,-2.556817581127042
-0.5593220338983051,0.3864406779661017,-0.0013879446117044854,9.462917479181613e-05,0.0013911667498475136,3.0735186425335805
-0.5254237288135593,0.3864406779661017,-0.0010045805865867444,0.0008902122265897765,0.0013422592757425427,2.4164806446392992
-0.4915254237288136,0.3864406779661017,-0.00023909126893980942,0.0012769563776132212,0.0012991467296692577,1.755888522941089
-0.4576271186440678,0.3864406779661017,0.0005807506887740213,0.001120513699560466,0.00126207064517569,1.0926242603708762
-0.423728813559322,0.3864406779661017,0.001119965665149297,0.0005104110266574545,0.0012307893837886414,0.42761547600603217
-0.38983050847457623,0.3864406779661017,0.001170674692311117,-0.00028444163093237435,0.0012047349404019118,-0.23835358622859482
-0.35593220338983056,0.3864406779661017,0.00073110659842404,-0.0009303324439143924,0.0011832308796084119,-0.9047399621568386
-0.3220338983050848,0.3864406779661017,-5.007005999771333e-07,-0.001165678528691139,0.0011656786362255374,-1.5712258625175337
-0.288135593220339,0.3864406779661017,-0.0007122918469754122,-0.0009049546695430266,0.0011516521302873419,-2.237623152677039
-0.2542372881355932,0.3864406779661017,-0.0011087754579780671,-0.00026879220336126783,0.001140890996021214,-2.903758299519446
-0.22033898305084743,0.3864406779661017,-0.0010310968508019762,0.0004701362621132365,0.001133220552534924,2.713795590739596
-0.18644067796610164,0.3864406779661017,-0.000519292130292139,0.001001856239615722,0.001128441509977501,2.049000162435114
-0.15254237288135597,0.3864406779661017,0.00020757913520255466,0.0011069340462315713,0.001126229141905873,1.3854230668509664
-0.11864406779661019,0.3864406779661017,0.0008440531454444928,0.0007453934867229133,0.0011260715618395148,0.7234059955803598
-0.0847457627118644,0.3864406779661017,0.0011250246029361854,7.111863206577326e-05,0.0011272702502233562,0.06313117472447552
-0.05084745762711862,0.3864406779661017,0.000934687079109549,-0.0006332881199155387,0.0011290233738415242,-0.595492740290979
-0.016949152542372836,0.3864406779661017,0.0003533999462925787,-0.0010739443971743744,0.0011305963427597967,-1.2528901344456886
0.016949152542372836,0.3864406779661017,-0.00037625595999841326,-0.0010671471258889202,0.0011315350351302918,-1.9097687577437452
0.05084745762711873,0.3864406779661017,-0.0009500332653040176,-0.0006151843995622977,0.0011318193542474164,-2.566948831723845
0.0847457627118644,0.3864406779661017,-0.0011279142358974282,9.44534915736134e-05,0.0011318621760667354,3.0580458533844426
0.11864406779661008,0.3864406779661017,-0.0008337766843829609,0.0007661891700285353,0.0011323556877985202,2.398412487731082
0.15254237288135597,0.3864406779661017,-0.0001878703801257696,0.001118392472368994,0.001134062168481178,1.7372250151237705
0.18644067796610164,0.3864406779661017,0.000541584778718892,0.0010004663285258732,0.00113764974709004,1.0746320956963924
0.22033898305084754,0.3864406779661017,0.001048405995934068,0.00045683323197889244,0.0011436134548661037,0.4109328853718331
0.2542372881355932,0.3864406779661017,0.0011154379529978247,-0.00028902118041114,0.0011522738692317145,-0.25353427648616284
0.2881355932203389,0.3864406779661017,0.0007064828028386749,-0.0009248729170690382,0.0011638332627290655,-0.9184772667066242
0.3220338983050848,0.3864406779661017,-1.51954897995023e-05,-0.0011783723372790836,0.0011784703085673466,-1.5836909332960254
0.35593220338983045,0.3864406779661017,-0.0007506828867183688,-0.0009316464504463625,0.0011964488727234147,-2.2490392464243953
0.38983050847457634,0.3864406779661017,-0.0011868927275269457,-0.00027441890034086167,0.0012182036281019033,-2.9143774160167513
0.423728813559322,0.3864406779661017,-0.0011269745403500583,0.000527592166037031,0.0012443573073120404,2.703748823042935
0.4576271186440677,0.3864406779661017,-0.0005762035391698808,0.0011380844476434795,0.0012756358134357393,2.039465198149293
0.4915254237288136,0.3864406779661017,0.0002531781323407005,0.0012880384655945853,0.001312685131913506,1.376709671358922
0.5254237288135593,0.3864406779661017,0.0010225404351086134,0.000890355383217579,0.0013558472074155828,0.7164057736203532
0.5593220338983051,0.3864406779661017,0.001402505074597353,8.349860509871557e-05,0.0014049884345875444,0.059465140990085555
0.5932203389830508,0.3864406779661017,0.001209943201768011,-0.0008161263683701305,0.0014594604484718466,-0.59341727045436
0.6271186440677967,0.3864406779661017,0.0004903773933452799,-0.001436833841109281,0.0015182099574370344,-1.2419017148165692
0.6610169491525424,0.3864406779661017,-0.0004898562752852513,-0.0015021305943206005,0.0015799859153898495,-1.8860297293042916
0.6949152542372881,0.3864406779661017,-0.0013419984753348583,-0.0009488600120681626,0.0016435617512898864,-2.5261508049839385
0.728813559322034,0.3864406779661017,-0.00170751990630058,3.621395972267468e-05,0.0017079038852615613,3.1203873186701605
0.7627118644067796,0.3864406779661017,-0.0014055145929785836,0.0010795425181394547,0.0017722537401700209,2.486622699309513
0.7966101694915255,0.3864406779661017,-0.0005151624350388957,0.0017623757128638244,0.0018361264901328226,1.8551844790092384
0.8305084745762712,0.3864406779661017,0.0006426692785033728,0.0017872160575485565,0.0018992538108139868,1.2256016450955503
0.8644067796610169,0.3864406779661017,0.0016216654693388525,0.001103498244638219,0.001961506377854946,0.5974994705582997
0.8983050847457628,0.3864406779661017,0.0020219517681062706,-5.949235796297417e-05,0.0020228268075156777,-0.029414746569921293
0.9322033898305084,0.3864406779661017,0.0016515928503027027,-0.0012696154995025081,0.002083190452106578,-0.655375813169261
0.9661016949152543,0.3864406779661017,0.0006131200786333062,-0.002052998235492329,0.002142596085536872,-1.2805820322129593
1.0,0.3864406779661017,-0.000722420799605315,-0.0020791452614802746,0.0022010762890091436,-1.9052069738926896
-1.0,0.4033898305084746,0.0009327866949379622,-0.0028128303985118937,0.00296346180489067,-1.2505898843504013
-0.9661016949152542,0.4033898305084746,-0.000869677969255021,-0.002751091189533464,0.0028852803162493913,-1.8769767226357024
-0.9322033898305084,0.4033898305084746,-0.0022551323867030263,-0.0016707157813128943,0.0028065839206203765,-2.5039730372463596
-0.8983050847457628,0.4033898305084746,-0.0027271245448518048,-2.697542815244681e-05,0.0027272579556868416,-3.1317014484097774
-0.864406779661017,0.4033898305084746,-0.002156463951864724,0.0015353737393454386,0.0026472078299906144,2.5228671171816095
-0.8305084745762712,0.4033898305084746,-0.0008130513007888198,0.0024341734787444525,0.0025663696036107623,1.8931605684532826
-0.7966101694915254,0.4033898305084746,0.0007549003581077314,0.002367286917371172,0.0024847377929729103,1.2621020448750802
-0.7627118644067796,0.4033898305084746,0.0019421331261563661,0.0014141166646386458,0.002402416912386905,0.6293538233890932
-0.728813559322034,0.4033898305084746,0.0023196592089294683,-1.2766330292579358e-05,0.0023196943386490443,-0.005503481439426456
-0.6949152542372881,0.4033898305084746,0.001790424372062387,-0.001341298614486421,0.002237118996678135,-0.6429576724763341
-0.6610169491525424,0.4033898305084746,0.0006107526605119847,-0.002067222369738302,0.002155557268612669,-1.2835226970892804
-0.6271186440677966,0.4033898305084746,-0.0007252982889968623,-0.0019453819500816288,0.002076190872662043,-1.9276638688294607
-0.5932203389830508,0.4033898305084746,-0.0016885814276881455,-0.0010725697748511964,0.0020004282441161646,-2.575699343752805
-0.5593220338983051,0.4033898305084746,-0.0019225751521383108,0.0001659632124952704,0.0019297251108697836,3.0554827254061467
-0.5254237288135593,0.4033898305084746,-0.0013751710399357686,0.0012603281280864505,0.0018653477905001842,2.399742333980972
-0.4915254237288136,0.4033898305084746,-0.00030588852684728204,0.0017820877807795453,0.0018081495096536032,1.7407859711452747
-0.4576271186440678,0.4033898305084746,0.0008298431314924425,0.0015503159184015532,0.0017584422281480942,1.079329655187807
-0.423728813559322,0.4033898305084746,0.0015695665761602542,0.000693665418626879,0.0017160160109970493,0.4161369983604013
-0.38983050847457623,0.4033898305084746,0.0016288362065180122,-0.00041264995846342274,0.0016802938361738559,-0.24812005633256326
-0.35593220338983056,0.4033898305084746,0.0010091844290189367,-0.0013060868645736303,0.0016505502444900168,-0.9129386490021458
-0.3220338983050848,0.4033898305084746,-1.1685253264381574e-05,-0.0016260624780748611,0.0016261044639711221,-1.5779824295915603
-0.288135593220339,0.4033898305084746,-0.0010003656249132674,-0.0012569303013795399,0.0016064262093336789,-2.2430199892913234
-0.2542372881355932,0.4033898305084746,-0.0015478688311295788,-0.00036854704453780996,0.0015911394792474992,-2.907845286750035
-0.22033898305084743,0.4033898305084746,-0.0014357067297664475,0.000659533000260097,0.0015799486043314042,2.710966879062821
-0.18644067796610164,0.4033898305084746,-0.0007213303245611384,0.0013973298585591375,0.0015725292273126045,2.0473359743401245
-0.15254237288135597,0.4033898305084746,0.0002901096308075354,0.0015413631361066301,0.0015684272106909363,1.3847565161707747
-0.11864406779661019,0.4033898305084746,0.0011744689476756375,0.0010373584225565882,0.001567000257148483,0.7234876794062869
-0.0847457627118644,0.4033898305084746,0.001564254889870799,9.969955755672905e-05,0.0015674289018203385,0.06365003766978723
-0.05084745762711862,0.4033898305084746,0.001299339430179609,-0.0008791454145828119,0.001568814716530112,-0.5948545587754779
-0.016949152542372836,0.4033898305084746,0.0004916252086207842,-0.0014914212482158094,0.0015703606863969287,-1.2523776151526587
0.016949152542372836,0.4033898305084746,-0.0005221504492446963,-0.0014823055424166916,0.0015715822640656393,-1.9094791870450725
0.05084745762711873,0.4033898305084746,-0.0013197693337060027,-0.0008548795739989144,0.0015724535542366114,-2.5668013219804457
0.0847457627118644,0.4033898305084746,-0.0015679493269652274,0.0001309360299503571,0.0015734069199891904,3.0582781410311215
0.11864406779661008,0.4033898305084746,-0.0011604985098756986,0.0010651100121578858,0.0015751876489557327,2.3990277888085036
0.15254237288135597,0.4033898305084746,-0.00026353032074035435,0.0015564955505449887,0.0015786470881155995,1.7385158253701951
0.18644067796610164,0.4033898305084746,0.0007512733538577622,0.0013951504443580618,0.0015845682107783142,1.0768335656526553
0.22033898305084754,0.4033898305084746,0.001458814360497416,0.0006413506025388883,0.001593571439807604,0.4142037651940285
0.2542372881355932,0.4033898305084746,0.0015565289869634462,-0.00039596002729880796,0.0016061029949775716,-0.24910289357764834
0.2881355932203389,0.4033898305084746,0.00099216212795945,-0.0012837768854109166,0.0016224884528625706,-0.9128332420191874
0.3220338983050848,0.4033898305084746,-9.83524751205434e-06,-0.00164299924912868,0.0016430286865210327,-1.5767824098931629
0.35593220338983045,0.4033898305084746,-0.0010358504353684718,-0.0013075160683458527,0.0016681080281071875,-2.240780055418261
0.38983050847457634,0.4033898305084746,-0.0016508177623993062,-0.0003986660349686529,0.0016982737977401289,-2.9046335453423624
0.423728813559322,0.4033898305084746,-0.0015789201834302006,0.0007173616803866848,0.0017342424069692413,2.7151380282696262
0.4576271186440677,0.4033898305084746,-0.0008233791917526493,0.0015745074368971898,0.0017768024544827163,2.05263019320506
0.4915254237288136,0.4033898305084746,0.0003254371939387023,0.0017973996979981312,0.001826623946400153,1.3916768423296095
0.5254237288135593,0.4033898305084746,0.0014001063043522766,0.001260666810580019,0.001884032502581892,0.73304042833544
0.5593220338983051,0.4033898305084746,0.001942994694747424,0.00015081054031493887,0.0019488386805702313,0.07746226926949258
0.5932203389830508,0.4033898305084746,0.001695981556645007,-0.0010978388761365607,0.002020297908338473,-0.57448728316229
0.6271186440677967,0.4033898305084746,0.0007157479307291052,-0.0019713020307386628,0.002097218824237798,-1.2225133963237285
0.6610169491525424,0.4033898305084746,-0.0006350028569789962,-0.0020835575783528597,0.0021781737328971534,-1.8666221911694856
0.6949152542372881,0.4033898305084746,-0.001821500147306094,-0.0013407350726425172,0.002261732371800399,-2.507072405473414
0.728813559322034,0.4033898305084746,-0.002346639893196012,6.317720769375649e-06,0.0023466483975949,3.1389004188230514
0.7627118644067796,0.4033898305084746,-0.0019547916080365716,0.001446797380346968,0.002431960709104704,2.5044391655260765
0.7966101694915255,0.4033898305084746,-0.0007473296393081645,0.0024035031579027442,0.002517007949895458,1.8722534239802637
0.8305084745762712,0.4033898305084746,0.0008401847352108241,0.002461964856790293,0.0026013806613703673,1.2419235023616602
0.8644067796610169,0.4033898305084746,0.002195848709172348,0.001544878241948305,0.002684846426896546,0.6131011566618018
0.8983050847457628,0.4033898305084746,0.002766989328546069,-4.011277534394359e-05,0.0027672800687739614,-0.014495887370526286
0.9322033898305084,0.4033898305084746,0.0022829938218924457,-0.0017036920140877452,0.0028486184844000143,-0.6410990010757132
0.9661016949152543,0.4033898305084746,0.0008764179943926601,-0.002794641382342105,0.0029288443039523705,-1.266903624238502
1.0,0.4033898305084746,-0.0009498731035370898,-0.002854075005893311,0.003007989869013539,-1.8920784572014402
-1.0,0.4203389830508475,0.00122534543002928,-0.003863586682563625,0.004053242341209891,-1.263678689267813
-0.9661016949152542,0.4203389830508475,-0.0012405830606222528,-0.003747447241535607,0.003947455782956372,-1.890488227165523
-0.9322033898305084,0.4203389830508475,-0.003118054419330837,-0.0022431856800463647,0.003841112515544635,-2.517952749785922
-0.8983050847457628,0.4203389830508475,-0.003734052280797204,1.7188699070443255e-05,0.0037340918423496945,3.13698945674853
-0.864406779661017,0.4203389830508475,-0.0029220591127959213,0.002147484094903682,0.003626309059710434,2.5078118268366385
-0.8305084745762712,0.4203389830508475,-0.0010620738783006605,0.0033535729626559332,0.0035177340062639046,1.8775022152636607
-0.7966101694915254,0.4203389830508475,0.0010882942885050086,0.003230014830048509,0.0034084278282994233,1.2458107735223947
-0.7627118644067796,0.4203389830508475,0.002699100020475455,0.001896216815751808,0.003298602603053379,0.6124264180824991
-0.728813559322034,0.4203389830508475,0.0031878537067328147,-7.340870621168908e-05,0.0031886988088682543,-0.023023558034016563
-0.6949152542372881,0.4203389830508475,0.0024309420497565263,-0.0018903993295900719,0.003079462432728975,-0.6609577153294425
-0.6610169491525424,0.4203389830508475,0.0007898418401643666,-0.0028651147575079116,0.0029719913704726415,-1.3018022509035097
-0.6271186440677966,0.4203389830508475,-0.0010507208019942139,-0.0026682920435266086,0.0028677162748937993,-1.9459294081737046
-0.5932203389830508,0.4203389830508475,-0.0023629079200712094,-0.0014422547962729682,0.0027682905801428488,-2.5935809620953627
-0.5593220338983051,0.4203389830508475,-0.0026611555440101417,0.0002756202273369846,0.0026753906890645347,3.038388994870192
-0.5254237288135593,0.4203389830508475,-0.001881620625840762,0.001780452788780512,0.00259046488350367,2.383813300832051
-0.4915254237288136,0.4203389830508475,-0.0003894643471102293,0.0024841582980813354,0.0025145029185897464,1.7263096135780556
-0.4576271186440678,0.4203389830508475,0.0011828791268320715,0.002143138031198959,0.002447905972349909,1.0664664943346822
-0.423728813559322,0.4203389830508475,0.0021971942008208634,0.0009417277629893933,0.0023905048704626892,0.4049198952226531
-0.38983050847457623,0.4203389830508475,0.0022643570834105513,-0.0005969173816267501,0.0023417137659585284,-0.25775070812510115
-0.35593220338983056,0.4203389830508475,0.0013918564526718882,-0.0018319906833963405,0.002300750801128919,-0.9210838351844536
-0.3220338983050848,0.4203389830508475,-3.160958921187107e-05,-0.002266618468628628,0.002266838866893395,-1.584741126379046
-0.288135593220339,0.4203389830508475,-0.0014040142217133407,-0.0017445090894426187,0.0022393230892216584,-2.248468839990274
-0.2542372881355932,0.4203389830508475,-0.0021595142372525427,-0.0005046083121681852,0.002217686021420899,-2.9120438228146304
-0.22033898305084743,0.4203389830508475,-0.0019977178230806253,0.0009250098682883609,0.0022014812643047508,2.7079532521251903
-0.18644067796610164,0.4203389830508475,-0.001000918384758614,0.0019481428350989318,0.0021902278691714014,2.0454076984627916
-0.15254237288135597,0.4203389830508475,0.000405984660590075,0.0021452332403701984,0.0021833115215707678,1.3837586766688308
-0.11864406779661019,0.4203389830508475,0.0016342688851766493,0.0014426599980395657,0.0021799318014561943,0.7232057016313806
-0.0847457627118644,0.4203389830508475,0.002174687268899722,0.0001389963365892124,0.0021791247552858817,0.0638287285357516
-0.05084745762711862,0.4203389830508475,0.0018059111096000134,-0.001220877986219321,0.002179875682925909,-0.5944675314342667
-0.016949152542372836,0.4203389830508475,0.0006837306051731727,-0.0020713817870362016,0.0021813092509123415,-1.25197274788437
0.016949152542372836,0.4203389830508475,-0.0007245435846278855,-0.002059148158606902,0.002182900489055702,-1.909132261662734
0.05084745762711873,0.4203389830508475,-0.0018331465591125465,-0.0011883278051537263,0.002184616506320421,-2.5664522758300596
0.0847457627118644,0.4203389830508475,-0.002179426368414443,0.00018084688112866864,0.002186916754189362,3.058803202949849
0.11864406779661008,0.4203389830508475,-0.0016152912168422864,0.0014797365722781228,0.002190613164971224,2.39996407115091
0.15254237288135597,0.4203389830508475,-0.0003701348196256246,0.0021652555318060753,0.0021966636753759333,1.740102648734522
0.18644067796610164,0.4203389830508475,0.001041158636988194,0.0019448319267057724,0.002205987880861815,1.0792730977148786
0.22033898305084754,0.4203389830508475,0.0020285984612007095,0.0009001881128643769,0.002219358095334823,0.4176432724350152
0.2542372881355932,0.4203389830508475,0.002170797100982556,-0.0005417499230057593,0.002237376372609449,-0.24456701715044202
0.2881355932203389,0.4203389830508475,0.0013924929007094154,-0.001780710137425265,0.0022605231854717234,-0.9071355818946839
0.3220338983050848,0.4203389830508475,2.1405414505365093e-06,-0.002289251023304476,0.0022892520240502777,-1.5698612869915194
0.35593220338983045,0.4203389830508475,-0.0014281669018930494,-0.00183350913018565,0.0023240947549824486,-2.232554178495415
0.38983050847457634,0.4203389830508475,-0.0022941667102117065,-0.0005774897590478634,0.0023657335682719565,-2.8949949563599437
0.423728813559322,0.4203389830508475,-0.0022097220441456315,0.0009743355314862446,0.002414995080802388,2.7263058333949135
0.4576271186440677,0.4203389830508475,-0.0011737890110123047,0.0021763883919356996,0.0024727408022123354,2.065409804272732
0.4915254237288136,0.4203389830508475,0.0004164750209611994,0.0025052864619895996,0.0025396676356785348,1.4060642894053927
0.5254237288135593,0.4203389830508475,0.0019161056843763498,0.0017811253620911686,0.0026160788499553595,0.748905880901824
0.5593220338983051,0.4203389830508475,0.002689647196223064,0.0002550524262944927,0.0027017131195427274,0.09454475175699172
0.5932203389830508,0.4203389830508475,0.0023737893426211644,-0.0014768498472408317,0.0027957040820582365,-0.5565462820062478
0.6271186440677967,0.4203389830508475,0.0010385295432252344,-0.0027041198498076163,0.0028966891055608956,-1.204111143276444
0.6610169491525424,0.4203389830508475,-0.000822215031766807,-0.002888273337348318,0.0030030252129645,-1.8481335342721465
0.6949152542372881,0.4203389830508475,-0.0024729763130645747,-0.0018908681501875624,0.003113036171709573,-2.488805064900506
0.728813559322034,0.4203389830508475,-0.003224849268495466,-4.880685927140385e-05,0.003225218583914535,-3.1264591917723568
0.7627118644067796,0.4203389830508475,-0.0027172084181666554,0.0019394471280615793,0.0033383643824936252,2.5216883274172517
0.7966101694915255,0.4203389830508475,-0.0010794107848191446,0.0032784703348709707,0.0034515931653387043,1.8888603530094932
0.8305084745762712,0.4203389830508475,0.0010972530657285065,0.0033912213723233577,0.0035643157388695695,1.2578702178074392
0.8644067796610169,0.4203389830508475,0.0029739073361498627,0.0021610305342762257,0.003676163464004309,0.6283978399550249
0.8983050847457628,0.4203389830508475,0.003786916554815836,6.642276441649582e-07,0.003786916613068817,0.000175400653206503
0.9322033898305084,0.4203389830508475,0.003155265795056515,-0.0022861862043173876,0.003896453464147206,-0.6270211429104396
0.9661016949152543,0.4203389830508475,0.0012499194480911965,-0.003804672978871918,0.004004726595271482,-1.2533820451072886
1.0,0.4203389830508475,-0.0012475685295337878,-0.0039179256099033674,0.0041117597595943965,-1.8790706286090335
-1.0,0.43728813559322033,0.0016076947381385048,-0.00530667214642779,0.00554485812629239,-1.2766286826976785
-0.9661016949152542,0.43728813559322033,-0.001765951759424646,-0.005105006726777286,0.005401821849807373,-1.903836657831632
-0.9322033898305084,0.43728813559322033,-0.004310331584365743,-0.0030116354577006156,0.00525822275082185,-2.5317386484607067
-0.8983050847457628,0.43728813559322033,-0.005113032929567402,9.646901081227064e-05,0.0051139429023883045,3.1227276144319647
-0.864406779661017,0.43728813559322033,-0.003960021126590085,0.0030014030463949236,0.004968922173867139,2.4930381615569273
-0.8305084745762712,0.43728813559322033,-0.0013856299883623709,0.004619864823835924,0.004823185820095017,1.8621876947477596
-0.7966101694915254,0.43728813559322033,0.0015634531481573451,0.0044078251336185335,0.004676890864136383,1.2299410654923522
-0.7627118644067796,0.43728813559322033,0.003749261677448123,0.0025431289664675375,0.004530393809159128,0.596014137799126
-0.728813559322034,0.43728813559322033,0.004380838434380621,-0.00017498866640521492,0.0043843319241951475,-0.03992288037499761
-0.6949152542372881,0.43728813559322033,0.0033013894959946118,-0.0026600488623538202,0.004239697224375039,-0.6782288210060142
-0.6610169491525424,0.43728813559322033,0.0010199373053597556,-0.00396891383425816,0.0040978712925896455,-1.3192577400431384
-0.6271186440677966,0.43728813559322033,-0.00151496687887473,-0.0036593884061634652,0.00396058684430111,-1.963308460489145
-0.5932203389830508,0.43728813559322033,-0.0033023823249824875,-0.0019394830759074146,0.0038297942010097658,-2.6105650941862333
-0.5593220338983051,0.43728813559322033,-0.003681020430569883,0.0004418052769192181,0.0037074389156109577,3.0221415464175445
-0.5254237288135593,0.43728813559322033,-0.0025735780814149125,0.002510401350955386,0.003595193886846423,2.368620480434926
-0.4915254237288136,0.43728813559322033,-0.0004932092728754853,0.003459236201965637,0.003494219582086966,1.7124193272749302
-0.4576271186440678,0.43728813559322033,0.0016823347862190753,0.002960401732318574,0.003405029919051754,1.0540275600336282
-0.423728813559322,0.43728813559322033,0.0030725827698851707,0.0012773206772088604,0.0033275085259425754,0.3939804940992905
-0.38983050847457623,0.43728813559322033,0.003145323325534991,-0.000861084264340352,0.003261061933243381,-0.2672191059062422
-0.35593220338983056,0.43728813559322033,0.0019181467255752521,-0.0025674373892851797,0.003204843460878325,-0.9291502404365842
-0.3220338983050848,0.43728813559322033,-6.532295716565667e-05,-0.003157286950569572,0.0031579626307114165,-1.5914829605692646
-0.288135593220339,0.43728813559322033,-0.0019692457038719548,-0.002419518639939073,0.003119615215251838,-2.25395546960095
-0.2542372881355932,0.43728813559322033,-0.003011071869419758,-0.0006899661061992657,0.0030891110421146684,-2.9163383398099936
-0.22033898305084743,0.43728813559322033,-0.002777949913323261,0.0012970075390120127,0.003065817065186165,2.70477901084908
-0.18644067796610164,0.43728813559322033,-0.0013875530903334154,0.002715041317612443,0.0030490577126116394,2.043253926746705
-0.15254237288135597,0.43728813559322033,0.0005687225444838493,0.0029843135592558844,0.003038021190275458,1.3824836804656282
-0.11864406779661019,0.43728813559322033,0.0022740051840417987,0.002005042546345013,0.0030317148925488803,0.7226250226668562
-0.0847457627118644,0.43728813559322033,0.0030228515170814246,0.00019291348439507382,0.0030290009750382906,0.06373195078507152
-0.05084745762711862,0.43728813559322033,0.002509450581397733,-0.0016958263641324376,0.0030287240346000594,-0.59428254860195
-0.016949152542372836,0.43728813559322033,0.0009506360175229392,-0.0028769175897835403,0.0030299114931327297,-1.2516559869477848
0.016949152542372836,0.43728813559322033,-0.0010052587793459547,-0.002860489008972944,0.003031986573833587,-1.9087436258245658
0.05084745762711873,0.43728813559322033,-0.002545804568483065,-0.0016521334504049515,0.003034907879797378,-2.5659466439766248
0.0847457627118644,0.43728813559322033,-0.003028950405817283,0.00024902966024717573,0.0030391703362239353,3.0595606681818612
0.11864406779661008,0.43728813559322033,-0.00224824256870226,0.0020546294789379246,0.003045668554430318,2.401160405770197
0.15254237288135597,0.43728813559322033,-0.0005203619670059923,0.00301085298066053,0.003055488872154298,1.7419344912239063
0.18644067796610164,0.43728813559322033,0.0014416591011545091,0.0027101232063970583,0.003069714768149233,1.0819140025968463
0.22033898305084754,0.43728813559322033,0.0028192595748379973,0.0012631582024264809,0.0030893030273304403,0.4212278575107385
0.2542372881355932,0.43728813559322033,0.003025807288211675,-0.0007402803771892906,0.00311504811876902,-0.23994224902416278
0.2881355932203389,0.43728813559322033,0.0019531427125028915,-0.0024683531516834357,0.003147623506207295,-0.9013990493717889
0.3220338983050848,0.43728813559322033,2.501869772749798e-05,-0.0031875738559389785,0.0031876720380713047,-1.5629476666142754
0.35593220338983045,0.43728813559322033,-0.001967568746600007,-0.002568999913487613,0.0032359059516766688,-2.224389077296385
0.38983050847457634,0.43728813559322033,-0.0031857628086421554,-0.0008341939766771931,0.0032931693341904035,-2.885491935223689
0.423728813559322,0.43728813559322033,-0.0030894125389018612,0.0013220989657321206,0.0033604189486898784,2.7372301247905773
0.4576271186440677,0.43728813559322033,-0.0016696590008605868,0.0030060299370307996,0.003438601047152776,2.0778039146829923
0.4915254237288136,0.43728813559322033,0.00053039563399281,0.00348834955432785,0.0035284418858382723,1.4199043125685031
0.5254237288135593,0.43728813559322033,0.0026211134858180533,0.0025116164925021965,0.0036302139483708534,0.7640683082148816
0.5593220338983051,0.43728813559322033,0.003720606480945924,0.00041395297546513974,0.0037435637635751923,0.11080384018624807
0.5932203389830508,0.43728813559322033,0.0033181711213308204,-0.001986725242112899,0.0038674716260216303,-0.5394932833208285
0.6271186440677967,0.43728813559322033,0.001499392451031153,-0.0037087361880272754,0.004000362712878958,-1.1866000509066796
0.6610169491525424,0.43728813559322033,-0.0010631580733787792,-0.00400150405219724,0.004140330876722464,-1.8304863122307735
0.6949152542372881,0.43728813559322033,-0.003358194901423599,-0.0026621779422680092,0.00428540131052458,-2.471293784479447
0.728813559322034,0.43728813559322033,-0.0044314450383710815,-0.00014320773844071018,0.0044337584039337305,-3.1092876343793274
0.7627118644067796,0.43728813559322033,-0.0037749300697102325,0.0026003781180107205,0.004583891729505778,2.5383860231480138
0.7966101694915255,0.43728813559322033,-0.0015530865975779866,0.00447267481155788,0.004734648661677093,1.905009237602449
0.8305084745762712,0.43728813559322033,0.0014313408381594383,0.004670819628606871,0.004885211622638491,1.2734388870105706
0.8644067796610169,0.43728813559322033,0.004028383003141669,0.0030205450477318414,0.005035033466162667,0.643383182327672
0.8983050847457628,0.43728813559322033,0.005183213323454014,7.563405265397221e-05,0.005183765124535647,0.01459108093197166
0.9322033898305084,0.43728813559322033,0.004360060343627296,-0.0030678266161323405,0.005331199334738983,-0.6131515118503023
0.9661016949152543,0.43728813559322033,0.0017788423429434808,-0.0051803349569194985,0.005477239299768707,-1.2400279192943995
1.0,0.43728813559322033,-0.0016366539648418295,-0.0053783813089452615,0.005621887735008965,-1.8661955244120827
-1.0,0.4542372881355932,0.0021066120174477575,-0.007288458166332683,0.007586793567406252,-1.289430221954774
-0.9661016949152542,0.4542372881355932,-0.002508920824685649,-0.006954811075473549,0.007393516132400799,-1.9170122308502604
-0.9322033898305084,0.4542372881355932,-0.00595731235102564,-0.0040430922945065215,0.007199733727686091,-2.5453210661748153
-0.8983050847457628,0.4542372881355932,-0.007001557187164614,0.00023033097197198418,0.007005344773941253,3.1087074067564036
-0.864406779661017,0.4542372881355932,-0.005367396867616934,0.004191862162677026,0.006810334611851858,2.478553580431652
-0.8305084745762712,0.4542372881355932,-0.001805299733926798,0.00636369762736413,0.006614813271879715,1.847220910918005
-0.7966101694915254,0.4542372881355932,0.0022390670957407703,0.006015901033208513,0.006419072105887912,1.2144901932225416
-0.7627118644067796,0.4542372881355932,0.00520550545990043,0.0034112534531362286,0.006223659471290748,0.5801035576931162
-0.728813559322034,0.4542372881355932,0.006019935354174441,-0.0003388576541020293,0.006029464833480902,-0.05622991363662413
-0.6949152542372881,0.4542372881355932,0.00448441565490792,-0.0037376172188288304,0.005837787786522304,-0.6948177821034112
-0.6610169491525424,0.4542372881355932,0.0013147757477701132,-0.005495263422306739,0.005650358868909729,-1.3359547717908364
-0.6271186440677966,0.4542372881355932,-0.002175516329440968,-0.00501798197242856,0.0054692791458548105,-1.9798815633819913
-0.5932203389830508,0.4542372881355932,-0.004610199395827544,-0.0026082161612617292,0.005296860392077133,-2.6267384607414956
-0.5593220338983051,0.4542372881355932,-0.00508869855975076,0.0006908312473229259,0.005135377380902713,3.0066596241635724
-0.5254237288135593,0.4542372881355932,-0.003518796730801081,0.0035335601081820326,0.004986780270959589,2.35410109699739
-0.4915254237288136,0.4542372881355932,-0.0006207729761275113,0.004812570945711788,0.004852442497897266,1.6990778757930394
-0.4576271186440678,0.4542372881355932,0.0023877763219414777,0.004086563948304346,0.00473302024791836,1.0420014842919514
-0.423728813559322,0.4542372881355932,0.0042925570455948185,0.0017310833212682872,0.004628465777648028,0.3833269373720183
-0.38983050847457623,0.4542372881355932,0.004365797101825798,-0.0012389102042809018,0.004538180563682089,-0.2765071172949769
-0.35593220338983056,0.4542372881355932,0.002641559862238576,-0.003595115548349059,0.00446124358355056,-0.9371180719023967
-0.3220338983050848,0.4542372881355932,-0.00012042769113809683,-0.004394980999718245,0.004396630620904745,-1.5981906578913585
-0.288135593220339,0.4542372881355932,-0.0027602452678020025,-0.0033534767227214133,0.004343358155650729,-2.2594645318970783
-0.2542372881355932,0.4542372881355932,-0.004196043152158753,-0.0009422001280213689,0.00430052545812972,-2.920711415542079
-0.22033898305084743,0.4542372881355932,-0.0038605938382772344,0.0018180769595400837,0.004267269456567591,2.7014687151557144
-0.18644067796610164,0.4542372881355932,-0.0019218789991907624,0.0037824150767512095,0.004242674003546035,2.040910041767119
-0.15254237288135597,0.4542372881355932,0.0007973038927995828,0.004149785087275724,0.004225684532481023,1.380978078784782
-0.11864406779661019,0.4542372881355932,0.0031639114883961097,0.002785052403023534,0.004215074470752807,0.7217991657731895
-0.0847457627118644,0.4542372881355932,0.004201035287476278,0.0002667513463783049,0.004209495666634607,0.06341144397720966
-0.05084745762711862,0.4542372881355932,0.003486277542297759,-0.0023558333914383838,0.004207621901994733,-0.5942610560573741
-0.016949152542372836,0.4542372881355932,0.0013213500881748214,-0.003995539152966951,0.004208360628369612,-1.2514119360941862
0.016949152542372836,0.4542372881355932,-0.001394521988546678,-0.003973464313835725,0.004211069962594565,-1.9083249930132298
0.05084745762711873,0.4542372881355932,-0.00353485892339908,-0.00229714669398782,0.004215698108502703,-2.565319184348029
0.0847457627118644,0.4542372881355932,-0.004208908968468108,0.00034205067148125796,0.004222785024922776,3.060502609531282
0.11864406779661008,0.4542372881355932,-0.0031289580861645454,0.002851434753708068,0.004233327161893903,2.4025667576701255
0.15254237288135597,0.4542372881355932,-0.0007320577185874987,0.004185021624380954,0.004248566169883639,1.743967554139199
0.18644067796610164,0.4542372881355932,0.001994663103829509,0.003775230832808049,0.0042697832191767445,1.0847226639387322
0.22033898305084754,0.4542372881355932,0.003915907188455152,0.001771961126898598,0.0042981595298260495,0.4249337639091204
0.2542372881355932,0.4542372881355932,0.0042153351848978815,-0.0010103474867487984,0.004334726377179726,-0.2352459650560193
0.2881355932203389,0.4542372881355932,0.0027378339915957286,-0.003419376569271362,0.004380396225002824,-0.8956395406883956
0.3220338983050848,0.4542372881355932,6.536845118624234e-05,-0.004435564006203634,0.004436045658865531,-1.5560600453962194
0.35593220338983045,0.4542372881355932,-0.002708796516249292,-0.0035966500354569103,0.0045026070274893516,-2.2163067599102653
0.38983050847457634,0.4542372881355932,-0.004420667483257975,-0.0012018113317745238,0.004581119019924723,-2.876146186568012
0.423728813559322,0.4542372881355932,-0.004315222016219971,0.0017924601971361738,0.004672692436656516,2.747897718381982
0.4576271186440677,0.4542372881355932,-0.0023702189601877127,0.004149084224754865,0.004778371879975751,2.0898177364510007
0.4915254237288136,0.4542372881355932,0.0006718132293420098,0.004852631529082581,0.004898914754531384,1.4332277067963366
0.5254237288135593,0.4542372881355932,0.0035841376850862844,0.0035356276778590436,0.005034551223505289,0.7785848410309764
0.5593220338983051,0.4542372881355932,0.005143500970038978,0.000653186430610018,0.005184810000561733,0.12631643060816233
0.5932203389830508,0.4542372881355932,0.004632869554808351,-0.0026725916033793163,0.005348478866960563,-0.5232430567062267
0.6271186440677967,0.4542372881355932,0.0021556040990220677,-0.005085750223267205,0.00552372015630618,-1.1698986648375562
0.6610169491525424,0.4542372881355932,-0.0013724859392647835,-0.005540850968690863,0.005708305099652786,-1.8136120323006086
0.6949152542372881,0.4542372881355932,-0.004561123288956538,-0.003742313897931527,0.005899894826834896,-2.4544876050812627
0.728813559322034,0.4542372881355932,-0.006089018641943837,-0.0002977200207339556,0.006096292744995551,-3.092736979654752
0.7627118644067796,0.4542372881355932,-0.005241621742478159,0.003487146892798279,0.006295616883449346,2.554550561391743
0.7966101694915255,0.4542372881355932,-0.0022270510347533958,0.006102715893659651,0.006496375727289969,1.9207075192322576
0.8305084745762712,0.4542372881355932,0.0018648210168763545,0.006432607429149168,0.006697461889591372,1.2886299847847278
0.8644067796610169,0.4542372881355932,0.005457663715319603,0.004218723899220412,0.006898095720368749,0.6580535936188805
0.8983050847457628,0.4542372881355932,0.007094821471649767,0.00020399810228047548,0.007097753654524549,0.028745178877546924
0.9322033898305084,0.4542372881355932,0.006023805373323063,-0.004116667120447219,0.007296107137114079,-0.599497762834911
0.9661016949152543,0.4542372881355932,0.002526668073326582,-0.007054129978687498,0.007492983471821191,-1.2268503822944317
1.0,0.4542372881355932,-0.0021444187098337837,-0.00738323351665078,0.0076883462958220496,-1.853463610451692
-1.0,0.4711864406779661,0.002756538407753473,-0.010009870645229867,0.010382485941606404,-1.3020749887508278
-0.9661016949152542,0.4711864406779661,-0.0035580527479021147,-0.009475465622392976,0.010121471637958825,-1.9300067061814905
-0.9322033898305084,0.4711864406779661,-0.008231911791237589,-0.0054274789516858945,0.009860116607307942,-2.5586922052111474
-0.8983050847457628,0.4711864406779661,-0.009587910417353565,0.00044766863071839615,0.00959835576409451,3.0949355903126676
-0.864406779661017,0.4711864406779661,-0.00727584666780397,0.005850436187461339,0.00933624915675194,2.4643627263481793
-0.8305084745762712,0.4711864406779661,-0.002348592480394915,0.008764824825197647,0.009074031124884271,1.8326026068442893
-0.7966101694915254,0.4711864406779661,0.0031976580763408992,0.008211544302370592,0.008812177767327616,1.1994523990681596
